Pdis,Psuc,T0,Tc,Tdis,Tret,Tsuc,Tsh,Tsup,CondFan,CprPower,Density,Cpr,Tset,Tamb
9.59152294129513,2.68324943634823,-2.38549043906778,37.8469685262812,61.6071710991491,18.3074852643866,11.7945829893437,14.1800831712827,7.00253770770792,100,4495.65005169081,5.929001892448,93.4439486185352,7,20
9.59152226463516,2.68324809655977,-2.38550398377913,37.8469659386665,61.6071853427554,18.3074698468544,9.79457326217789,14.1800869731228,7.00252587597197,100,4495.65087707923,5.95080209211323,93.4439670977116,7,20
9.59152158667427,2.68324676046182,-2.38551749122558,37.846963346052,61.6071995219641,18.3074544512053,9.79456355069738,12.1800907534035,7.0025140671487,100,4495.65169400491,5.95079922049815,93.443985426265,7,20
9.59151036980773,2.68304734777577,-2.38553096147007,37.8469607484529,61.612431632974,18.3074411894773,9.79530200880964,12.1800945121674,7.00350833129352,100,4496.16187817524,5.95034669127064,93.4440036045076,7,20
9.59140872248907,2.68177198554713,-2.38754145414464,37.8469177711406,61.6472433813371,18.3074415041486,9.8010446895297,12.1828434629543,7.01060838668167,100,4497.21722816361,5.94744138354075,93.4460553142696,7,20
9.59100218903405,2.67904088868077,-2.40040247112864,37.8465283087327,61.7213134465358,18.3074750177597,9.82033628303174,12.2014471606583,7.0282572920695,100,4492.48655238664,5.94114372754882,93.4604695026908,7,20
9.59016171852288,2.67489264644197,-2.42795928915234,37.8449706419989,61.8269851415981,18.3075519150638,9.85696388357582,12.2482955721841,7.05333220125135,100,4483.45676114814,5.93149936810921,93.4963640553292,7,20
9.58883074163847,2.66952779537821,-2.46985659870938,37.8417501521993,61.9554630634084,18.3076752253257,9.91086799387494,12.3268204822852,7.08123859953702,100,4472.35197593946,5.91895756490659,93.5476978142024,7,20
9.5869690014318,2.66304183710769,-2.52411604232827,37.8366497212907,62.0996454237071,18.3071057460049,9.97946074207772,12.4349840362032,7.10584342586918,100,4461.09374531543,5.90376142201086,93.6054301692422,7,20
9.58456489526466,2.65573991953407,-2.58982662948404,37.8295144628398,62.2522362136411,18.3052431870298,10.0584738718375,12.5692873715618,7.12187245183105,100,4449.81231631127,5.88663926890547,93.6572533779497,7,20
9.58163051568438,2.64815736416808,-2.66395173283001,37.8202990073738,62.4054468987995,18.3025032275975,10.1443101439725,12.7224256046675,7.12975153076491,100,4437.49177372821,5.86882407007944,93.6923252088025,7,20
9.57819755048276,2.64077804956347,-2.74109227738393,37.8090485482396,62.5525794932725,18.2997935418131,10.2347973568671,12.8854024213564,7.13410799078662,100,4424.21510419094,5.85141763995234,93.7112018633112,7,20
9.57430705321496,2.63380323661792,-2.816328926675,37.7958832203606,62.6919817029634,18.2977454576682,10.3292288929861,13.0511262835421,7.14007663520272,100,4409.19795038091,5.8348757948485,93.7230790689566,7,20
9.57007237339561,2.6273047878427,-2.88759066816556,37.7809589871309,62.8217136024376,18.2964089224199,10.4262373723911,13.2168195611516,7.14832215933319,100,4394.07663100608,5.81937292313478,93.7384151267453,7,20
9.56557852566204,2.62131681971322,-2.95411652174272,37.7647092692127,62.9389310852374,18.2956010783055,10.5241823085179,13.3803538941339,7.1573321866677,100,4380.02641992763,5.80500200029134,93.7586574990921,7,20
9.56091219249035,2.61601912351707,-3.01552896480189,37.7474591431754,63.0395214535985,18.2950522244573,10.6200581036317,13.5397112733198,7.16449107786366,100,4367.48848566468,5.79219434184824,93.7807657245903,7,20
9.55624869100497,2.61137278497589,-3.069952304526,37.7295404735813,63.1249101291605,18.2944959582113,10.7114491483152,13.6900104081577,7.16864991239208,100,4356.46522401556,5.78088792403882,93.7993224115159,7,20
9.55168495217735,2.60735157600205,-3.11775427714713,37.7116261174555,63.1966202485804,18.2939211277903,10.7975959200478,13.8292034254624,7.17004291435461,100,4346.59926305396,5.77103132475446,93.8118405226003,7,20
9.54728718974351,2.60404279708685,-3.15917786469458,37.6940886345482,63.2537172090445,18.293445548723,10.8776577483377,13.9567737847424,7.1692802530938,100,4337.59587713377,5.76282649649105,93.8186750208748,7,20
9.54311730719612,2.60149265410969,-3.19329949982841,37.6771830116408,63.2959856600073,18.2931774942144,10.9510918966478,14.0709572481661,7.16711732815742,100,4329.49377991088,5.75638081507276,93.8209864119504,7,20
9.53922972765165,2.59970221608336,-3.21962057306382,37.6611479912992,63.3238066010458,18.293171708202,11.0175460670784,14.1707124697116,7.16412627960881,100,4322.34707822313,5.7516993584888,93.8202767077965,7,20
9.53551339015978,2.59844922914491,-3.23811231914283,37.6461938110461,63.3412025051539,18.2933787214641,11.0798544312702,14.2556583862212,7.1603761528591,100,4315.39396914758,5.74825737495664,93.8177007677644,7,20
9.53218216824892,2.59801432585283,-3.25105908625937,37.6318940623025,63.343177948829,18.2938880680739,11.1338514556518,14.3309135175296,7.15592649068714,100,4310.25308065901,5.74672190977893,93.8133753488734,7,20
9.52921255409694,2.5982073653504,-3.25555394791655,37.6190726076535,63.333794590802,18.2946041556983,11.1807849311085,14.3894054035684,7.15136756380554,100,4306.05887553526,5.74665661006143,93.8074024400864,7,20
9.52669680766395,2.59899567332245,-3.25355875261926,37.6076400997677,63.3136861518467,18.2954669014131,11.2194971655023,14.4343436837278,7.14673022704943,100,4303.31609922442,5.74800067582637,93.8010202165372,7,20
9.5245799334244,2.6002451161272,-3.24541223759326,37.5979528123764,63.2854118314027,18.296429513994,11.2513243863797,14.4649094030955,7.14199825774625,100,4301.48779814117,5.75044174360524,93.7942976842831,7,20
9.52293720371803,2.60190065483523,-3.23250417855189,37.5897999587767,63.250041949681,18.2974243360301,11.2752764552535,14.4838285649316,7.13703231383391,100,4301.04566385747,5.75386787162145,93.7872044030301,7,20
9.52187064858937,2.60385661818312,-3.2154080923969,37.5834722710238,63.2100738540013,18.2983527597211,11.2901172126922,14.4906845476504,7.131971287304,100,4301.99245462404,5.75805734707303,93.7794455900671,7,20
9.5210175254514,2.60603658596,-3.19522045551003,37.5793635314626,63.1664997963487,18.2993840945141,11.3014646755754,14.4853376682022,7.1270939703374,100,4302.80337639355,5.76278121346703,93.77131851903,7,20
9.52058949697904,2.60840952126023,-3.17273463766776,37.5760767571042,63.119848191337,18.3004379409402,11.3062348610233,14.4741993132432,7.12239889495851,100,4304.93418523142,5.76800317645529,93.7634258948637,7,20
9.52049412837889,2.61088865372176,-3.14827490141113,37.574427635189,63.07207400148,18.301492030957,11.3059306533968,14.4545097624344,7.11808088430962,100,4307.5954096347,5.77351473196946,93.755776711764,7,20
9.52075355823746,2.61338627612457,-3.12273883993771,37.5740601883858,63.0248078858019,18.3024958133378,11.3003791850716,14.4286694933345,7.11421499328577,100,4310.98102158296,5.77912299485377,93.7488013335161,7,20
9.52127859315824,2.61586306390237,-3.09703123766315,37.5750597422794,62.9788050959997,18.303470599513,11.2909893759937,14.3974104227348,7.11089206947889,100,4314.66157880772,5.78472581967691,93.742677069499,7,20
9.52207207735495,2.61823372125247,-3.07155679702799,37.5770825798674,62.9355237704546,18.3043716387225,11.2778503784821,14.3625461730217,7.10811726965585,100,4318.77193141949,5.79013284648829,93.7376161242374,7,20
9.52312235279782,2.62039089226379,-3.04719136282694,37.5801395312575,62.8970959953858,18.3051323624521,11.2612327652104,14.3250417413091,7.10576284630292,100,4323.15336068662,5.79510273323839,93.7336472446352,7,20
9.52430262554987,2.62238120837484,-3.02503491221995,37.5841854941817,62.8625308070174,18.3058376413967,11.2429558210043,14.2862676774304,7.10389657230365,100,4327.46996019109,5.79971981338014,93.7305115507293,7,20
9.5255753528583,2.62418171928962,-3.00460471858111,37.5887318443996,62.8321852377417,18.3064975926828,11.2236460596067,14.2475605395854,7.1025951474362,100,4331.69797549508,5.80392641732111,93.7283676896804,7,20
9.52690481938678,2.62577140481236,-2.98613314107928,37.5936338509306,62.8063851625602,18.3071094932591,11.2038866340931,14.2097792006859,7.10185386450297,100,4335.78813204899,5.8076695926041,93.7273946139369,7,20
9.52825837335581,2.62713458730087,-2.96983256327781,37.5987538678874,62.78539113119,18.3076654884484,11.1842051608394,14.1737191973709,7.1016146879424,100,4339.70312152214,5.81090882491429,93.7275968500562,7,20
9.52960557412364,2.62826286508331,-2.95586060216419,37.6039660989513,62.7692233775656,18.3081589418067,11.1650691038613,14.1400657630036,7.10180122976283,100,4343.34983369763,5.8136203939407,93.728863162107,7,20
9.53091956744188,2.6291548028565,-2.94430053064605,37.6091533133693,62.7578285832288,18.3085878336555,11.1468854432899,14.1093696345073,7.1023440018177,100,4346.69053236255,5.81579669880322,93.7310409221266,7,20
9.53217686474854,2.62981523032544,-2.93516465320278,37.6142121367111,62.7510493891252,18.3089551790903,11.1300006841224,14.0820500964927,7.10318958795995,100,4349.68395247499,5.81744470785419,93.7339903630434,7,20
9.53335757835626,2.63025387210856,-2.92840161379945,37.6190521924652,62.7486387306229,18.3092675633009,11.1146997983477,14.0584022979219,7.10429768155814,100,4352.29976399676,5.81858293156784,93.7376046827384,7,20
9.53444552695459,2.63048402251587,-2.92391047195758,37.6235969974755,62.7502804825913,18.3095331758447,11.1012048215683,14.0386102703053,7.10563347293152,100,4354.52183659607,5.81923849665472,93.7418041055903,7,20
9.53542822193615,2.63052155043253,-2.9215542514973,37.6277843572019,62.7556078241457,18.3097603111025,11.0896744327049,14.0227590730656,7.10716132565921,100,4356.34768332425,5.81944494139189,93.7465197782488,7,20
9.53629674678199,2.63038424574433,-2.92117006545504,37.6315663023967,62.7642177924599,18.309956662318,11.0802054472748,14.0108444981599,7.10884223230977,100,4357.7861391695,5.81924074797965,93.7516802332986,7,20
9.53704555487019,2.63009137635107,-2.92257572079859,37.6349086152002,62.7756828650751,18.31012925286,11.0728364219889,14.0027811680734,7.11063463769534,100,4358.85462823428,5.81866831905775,93.7572058507479,7,20
9.53767221540073,2.6296633101271,-2.92557415737497,37.6377900428972,62.7895609774707,18.310284659641,11.0675529829892,13.9984105793639,7.11249689789582,100,4359.57683446039,5.81777307909437,93.7630105321456,7,20
9.53817711760357,2.62912111394284,-2.92995722087772,37.6402013139457,62.8054049199829,18.3104292336119,11.0642942409173,13.997510203867,7.11438972481005,100,4359.98101728165,5.81660251239779,93.7690069335787,7,20
9.53856316487261,2.62848611245581,-2.9355096761816,37.6421439954947,62.822771526247,18.3105691755244,11.0629597025526,13.9998039170989,7.11627773205953,100,4360.09883574541,5.81520510593356,93.7751117323361,7,20
9.53883545079599,2.62777943368365,-2.94201364377841,37.6436293140547,62.8412303699529,18.3107104654048,11.063416262164,14.004973346331,7.118129993666,100,4359.96442063416,5.8136292617567,93.7812490146254,7,20
9.53905188030131,2.62700137818762,-2.94925318735443,37.6446769081996,62.860868990937,18.3108239737921,11.0648233435066,14.0126694495184,7.11988815082782,100,4359.89465172254,5.81188462282307,93.7873515698371,7,20
9.53914930428173,2.62618572051448,-2.95722568452231,37.6455095840856,62.8810323788992,18.3109515101972,11.0679975521565,14.022049028029,7.12157898156067,100,4359.33780165675,5.81003758332276,93.7932916551831,7,20
9.53911503504403,2.62538230042289,-2.96558543589282,37.6458844017301,62.9005371403443,18.3111399937291,11.0730097248647,14.0335829880493,7.12322438302834,100,4358.50831086198,5.80819820257552,93.7991250545661,7,20
9.53900384040206,2.62458480721505,-2.97382172171154,37.6457525585948,62.9195690552814,18.3113536589722,11.0790714828448,14.0468314465763,7.12475832157713,100,4357.67014324902,5.80636086344173,93.8048976567387,7,20
9.53882669674046,2.623804184722,-2.98199917125993,37.6453247599297,62.9379586982279,18.311586524356,11.0859758888313,14.0610706541048,7.12614376793277,100,4356.7983667025,5.8045521059527,93.8104643865475,7,20
9.53859493226843,2.62305341450514,-2.99000548634041,37.6446432281545,62.9554902356738,18.3118394818787,11.093523389546,14.0759813751717,7.12736896583851,100,4355.89716175077,5.80280291656597,93.8157414542116,7,20
9.5383198545704,2.62234461320361,-2.99770736079682,37.6437515372398,62.9719628548847,18.3121162185109,11.1015246897838,14.0912307503428,7.12843832331293,100,4354.98301376346,5.8011422450175,93.8206990950414,7,20
9.53801252569835,2.62168775267129,-3.00498025265534,37.6426931818585,62.9872145886766,18.3124204622486,11.1098024210737,14.1065049424391,7.12936260346601,100,4354.07755464085,5.79959414203789,93.8253424685897,7,20
9.53768358964397,2.6210904131107,-3.01172154314656,37.6415107136958,63.0011274721394,18.3127546231064,11.1181921865723,14.1215239642203,7.13015242304874,100,4353.20328205308,5.79817720033302,93.829690739655,7,20
9.5373430973162,2.62055786487239,-3.0178531076557,37.6402450787807,63.0136265107587,18.3131195254072,11.1265436664655,14.136045294228,7.13081610985887,100,4352.38130341873,5.79690472565957,93.8337630723152,7,20
9.5370002746608,2.62009331288632,-3.02332051205974,37.6389349447118,63.024665807153,18.3135147519807,11.1347219662742,14.1498641785252,7.13136057947577,100,4351.62325194164,5.79578526684628,93.8375739469071,7,20
9.53666358191035,2.61969824759077,-3.02809053332129,37.6376158086189,63.034246075276,18.3139391520074,11.1426089502777,14.1628124995955,7.13179324375631,100,4350.95116680143,5.79482338262227,93.8411350158793,7,20
9.53634049448186,2.61937263175437,-3.03214757848713,37.636320224939,63.0424009439276,18.3143912342134,11.150104211883,14.1747565287648,7.13212337529734,100,4350.37736721074,5.79402004742314,93.8444592469265,7,20
9.53603743335721,2.61911506460607,-3.03549178101997,37.6350769618489,63.0491848637189,18.314869358602,11.1571254894779,14.185595992903,7.13236242340855,100,4349.90673905835,5.79337301251501,93.8475639331391,7,20
9.53575977798615,2.61892293825808,-3.03813732401744,37.6339107326399,63.0546722347784,18.3153717735967,11.1636084924766,14.1952628134954,7.13252348583518,100,4349.5430236169,5.79287715609458,93.8504714442562,7,20
9.5355118639506,2.6187925846806,-3.04011083727863,37.6328422445397,63.0589552292307,18.3158965895051,11.1695062360629,14.2037193297552,7.13262041716854,100,4349.28796191277,5.79252481743955,93.8532081316874,7,20
9.53529700365682,2.61871944365816,-3.04144988700921,37.6318881888851,63.0621404768989,18.3164417608455,11.1747880391015,14.2109561230722,7.13266700746448,100,4349.14121225828,5.79230618110414,93.8558024158207,7,20
9.53511752495628,2.61869825004424,-3.04220124653699,37.6310613199588,63.0643454209101,18.3170051086575,11.1794383165361,14.2169892856385,7.13267644367295,100,4349.10047191771,5.79220970603613,93.8582829973087,7,20
9.53497482491845,2.61872322807989,-3.04241896628594,37.6303706029286,63.065694661944,18.317584378384,11.183455248893,14.221857282822,7.13266105431359,100,4349.16163659952,5.79222257156792,93.8606776633057,7,20
9.53486943698042,2.61878827964774,-3.04216236971672,37.629821420234,63.0663164713363,18.3181773122267,11.1868493653316,14.2256176186098,7.13263222469953,100,4349.31900116269,5.7923311107453,93.8630126998175,7,20
9.53480110945688,2.61888715700707,-3.04149411109222,37.6294158296125,63.0663396014295,18.3187817156277,11.1896420552946,14.2283434764238,7.13260036420553,100,4349.56550854067,5.79252120985279,93.8653126719037,7,20
9.53476889251498,2.61901361268936,-3.04047839302933,37.6291528660062,63.0658905379806,18.3193955072323,11.1918640382628,14.2301204483239,7.13257487825479,100,4349.89303378329,5.79277865758242,93.8676003166084,7,20
9.53477123063297,2.6191615283682,-3.03917941965346,37.6290288761948,63.0650911607058,18.3200167514899,11.1935538118615,14.2310434579163,7.13256412000317,100,4350.29266731224,5.79308944768922,93.8698964462487,7,20
9.53480605793169,2.61932502491522,-3.03766006710219,37.6290378746637,63.0640567761542,18.3206436777852,11.1947561018814,14.2312138789637,7.13257532753568,100,4350.75498462304,5.79344003981939,93.8722198072204,7,20
9.53487089414188,2.61949855535733,-3.03598074883286,37.6291719106306,63.0628944973984,18.3212746913097,11.195520341359,14.2307368507142,7.13261456980018,100,4351.27029464275,5.79381758205145,93.8745869066285,7,20
9.53496293848578,2.61967698179182,-3.03419845812351,37.6294214375924,63.0617019503476,18.3219083797509,11.1958992071031,14.2297187994826,7.13268672126014,100,4351.8288625565,5.79421009720795,93.8770118576031,7,20
9.53507916028116,2.6198556366115,-3.03236597680575,37.6297756748862,63.0605662979929,18.3225435177063,11.1959472388208,14.2282651839088,7.13279547411594,100,4352.42110747251,5.79460663345878,93.8795062876744,7,20
9.53521638507712,2.62003036810805,-3.03053124640064,37.6302229566529,63.0595635738043,18.3231790689118,11.195719560755,14.2264784852215,7.1329433858557,100,4353.037776945,5.79499737915803,93.8820793305458,7,20
9.53537137427262,2.62019757071166,-3.02873690070084,37.6307510635936,63.0587583083484,18.3238141855421,11.1952707212066,14.2244564614558,7.13313195263345,100,4353.67009892336,5.79537374232323,93.8847376973121,7,20
9.53554089769931,2.62035420046445,-3.02701995685379,37.6313475296174,63.0582034333739,18.3244482038953,11.1946536604277,14.2222906780603,7.13336169924031,100,4354.30991128811,5.79572839596779,93.887485807,7,20
9.5357217983755,2.62049777683515,-3.02541165852165,37.6319999213681,63.0579404403897,18.3250806363317,11.1939188148335,14.2200653189494,7.13363227812096,100,4354.94976759847,5.79605529165839,93.8903259565812,7,20
9.53591104882816,2.62062637173323,-3.02393745947745,37.6326960875753,63.0579997780241,18.3257111598938,11.1931133650433,14.217856274311,7.13394257723343,100,4355.58301847852,5.7963496431165,93.8932585140575,7,20
9.53610579867287,2.62073858812362,-3.0226171385977,37.6334243758992,63.0584014376644,18.3263396023472,11.1922806277377,14.215730503641,7.13429082945385,100,4356.20386588228,5.79660788519397,93.8962821342562,7,20
9.53630341347369,2.6208335303166,-3.02146502141954,37.6341738160842,63.0591556832199,18.3269659262874,11.1914595870261,14.2137456491573,7.1346747178406,100,4356.80739346826,5.79682761287125,93.899393981286,7,20
9.53650150503484,2.62091076740696,-3.02049028684183,37.6349342695055,63.0602638977168,18.327590212055,11.1906845607115,14.2119498738679,7.1350914770735,100,4357.38957582784,5.79700750359844,93.9025899449801,7,20
9.53669795340917,2.62097029147033,-3.01969734376524,37.6356965457044,63.0617195165411,18.3282126402486,11.1899849953905,14.2103819044768,7.13553799207108,100,4357.94726746004,5.79714722661144,93.9058648518122,7,20
9.53689092123053,2.6210124719292,-3.01908626114164,37.6364524870169,63.0635090206151,18.3288334744329,11.1893853822268,14.2090712565321,7.13601089401828,100,4358.47817375978,5.79724734244607,93.9092126723327,7,20
9.53707886020651,2.62103800738386,-3.01865323694682,37.6371950236398,63.0656129595814,18.3294530443778,11.1889052833416,14.2080386191736,7.1365066526331,100,4358.98080673018,5.79730919563388,93.9126267255179,7,20
9.53726051154416,2.62104787606056,-3.01839109282162,37.6379181985168,63.0680069876715,18.3300717300039,11.188559457097,14.2072963761632,7.13702166298583,100,4359.45442854969,5.79733480326356,93.9160998773478,7,20
9.53743490031866,2.62104328595377,-3.01828978261699,37.6386171688729,63.0706628873025,18.3306899461371,11.1883580694602,14.206849239714,7.13755232511642,100,4359.89898566278,5.79732674193831,93.9196247297594,7,20
9.53760132459947,2.6210256256376,-3.01833690385837,37.6392881844429,63.0735495621714,18.3313081282005,11.1883069780122,14.2066949733185,7.13809511517621,100,4360.31503581211,5.7972880354396,93.9231937959417,7,20
9.53775934019557,2.62099641663736,-3.01851820219957,37.6399285455334,63.0766339837177,18.3319267189845,11.1884080750027,14.2068251802118,7.13864664740697,100,4360.70367029987,5.79722204522355,93.9267996589548,7,20
