Pdis,Psuc,T0,Tc,Tdis,Tret,Tsuc,Tsh,Tsup,CondFan,CprPower,Density,Cpr,Tset,Tamb
9.73948086239269,3.25600267115875,2.96664484049978,38.4105868547022,56.0490208188323,24.4049854643242,15.8579580752086,12.8913207321454,12.0214772120432,100,3812.22645381056,7.14864651143843,83.1500535560728,12,30
9.74578255307003,3.25603336649752,2.9665960036661,38.4106121114219,56.0800295726999,24.4049810237052,15.8579585859598,12.8913620715425,12.0214791941426,30,3812.3818605584,7.14871428400673,83.1503636084157,12,30
9.79596054034864,3.25677771147892,2.96686267974411,38.4344753253144,56.3157340163186,24.4049780044056,15.8580042173057,12.8910959062156,12.0221528017333,30,3820.07080719654,7.15035729941955,83.1507248390015,12,30
9.89894266929005,3.25997720325671,2.97332883671777,38.6240770393499,56.7641339920345,24.4049782832319,15.8552792757894,12.884675380588,12.0239504022822,30,3848.18310964985,7.15745785812618,83.1524651421352,12,30
10.0245478404912,3.26653404505301,3.00111005634949,39.0109320340092,57.2594022558879,24.404987373747,15.8435312427345,12.8541692194399,12.0291536722524,30,3891.81030664329,7.17209050790903,83.1565254799228,12,30
10.1570001039722,3.27598223504884,3.05797788933086,39.4787038459799,57.7329575033248,24.4050183198813,15.8181128826698,12.7855533534037,12.0415354540139,30,3945.85556811325,7.19328892094483,83.1676133767846,12,30
10.2882144090292,3.28700628474402,3.13976873898764,39.9672349419569,58.1687229872304,24.4050839265955,15.7777736637493,12.6783441436821,12.0617420330598,30,4009.94182483272,7.21816726987884,83.1935548610937,12,30
10.4124430232564,3.29883308179944,3.23497304407596,40.4465091187421,58.5691426483635,24.4052013661546,15.7224224586934,12.5428006196733,12.0890602078755,30,4077.08014314572,7.24502226531081,83.2358660192671,12,30
10.5287225512629,3.3100850756907,3.33683801475462,40.8960592371969,58.9394037678696,24.4053707710469,15.6568306376165,12.3855844439388,12.1207222005661,30,4140.36571797642,7.27075004911111,83.2933470257138,12,30
10.6359090423912,3.3200512392155,3.43349250986313,41.3132123831372,59.2861766873077,24.4056011099993,15.5842932637648,12.2233381277533,12.1549529002596,30,4200.96950079349,7.29373639990658,83.3606082278403,12,30
10.7342964726253,3.32839515695704,3.51889155310931,41.6946939134725,59.6079485408554,24.405894238411,15.5109871663899,12.0654017106555,12.1904301984932,30,4256.76264063165,7.31315468448825,83.4342685744497,12,30
10.840364126841,3.33508509845263,3.5902386908711,42.0423288939783,59.9748087301426,24.4062478579112,15.4423392954726,11.9207484755188,12.2251427113555,30,4314.61871845625,7.32886033088251,83.5118406702725,12,30
10.9420267489364,3.34009762317364,3.64734402569337,42.4144335195051,60.3434036000588,24.4066512726773,15.3799317415996,11.7949952697792,12.255627293827,30,4372.53062962547,7.3407781723335,83.5893276366194,12,30
11.0432021444989,3.34384546530225,3.69007340577275,42.7685299247374,60.7322268561257,24.4070961298549,15.3261450114875,11.6898583358269,12.2822662731826,30,4424.65283390044,7.34978682418744,83.6595159469534,12,30
11.1343164233624,3.34635479615509,3.72198986082248,43.1184876527661,61.0974206968243,24.4075766963329,15.2826849364801,11.604155150665,12.3061801064579,30,4471.78902400819,7.35591977308843,83.7230520363997,12,30
11.2172162046172,3.34760241012136,3.74334388476672,43.4315925989087,61.4527491546615,24.4080928227901,15.2530150980701,11.5393410517133,12.3287698119962,30,4510.91890730092,7.3590779392145,83.7821425093342,12,30
11.2930565381026,3.34778431370913,3.75395632120706,43.7148038895336,61.8008186751623,24.4086459677724,15.2401619773653,11.499058776863,12.3509516254506,30,4541.70257237343,7.35965324481753,83.8396612890104,12,30
11.362571757961,3.34705501569283,3.7555033736769,43.9725261307798,62.1408025115987,24.4092375964114,15.2457552450969,11.4846586036884,12.3729689199026,30,4565.90004028313,7.35796518424132,83.8975389268161,12,30
11.4261424066302,3.34552122448108,3.74930045577707,44.207616425596,62.4717370301044,24.4098693320298,15.2705513825579,11.4964547893198,12.3946874433213,30,4584.09418279651,7.35423980282029,83.9563138877262,12,30
11.4843146670962,3.34331780250397,3.73625167863361,44.4216605744671,62.7920819429086,24.4105404406204,15.3134488028575,11.5342997039243,12.4158344738624,30,4597.97479370699,7.34879081341454,84.0157131921582,12,30
11.5374707615433,3.34056456031325,3.71749796747764,44.6167469554369,63.1007250514963,24.4112501115454,15.3729166668809,11.5959508353799,12.4361259828446,30,4608.11023080414,7.3419046540264,84.0751393504283,12,30
11.5861337553829,3.3373773115861,3.69405131824317,44.7943641133683,63.3967024009462,24.411995757028,15.4464383772536,11.6788653486377,12.4553702327692,30,4615.40506972797,7.333872234099,84.1339360236306,12,30
11.6304808217892,3.33390173037897,3.66689015360043,44.9564305496697,63.6782073235883,24.4127767144467,15.5322355023746,11.7795482236531,12.4732735196547,30,4620.1407814985,7.32504046324149,84.1916179891691,12,30
11.670847593767,3.33029808754443,3.63724919445428,45.1036792460222,63.9435323387676,24.4135906626754,15.6276965209092,11.8949863079204,12.4896322852907,30,4622.98416152426,7.31579942470996,84.2474399886645,12,30
11.7074149445769,3.3267305609637,3.60649105393202,45.237346209699,64.1905102564971,24.4144359849833,15.7302347583774,12.0212054669772,12.5041830338307,30,4624.58452991006,7.30654709010584,84.3008228994444,12,30
11.740765739899,3.32328651596599,3.57601602970681,45.3581330865819,64.4198556397266,24.4153075659631,15.8366230737415,12.1542187286706,12.516924274998,30,4625.49387782614,7.29751982298605,84.3510186906135,12,30
11.770979466143,3.3201348882648,3.54657204606565,45.468048761539,64.6288181658578,24.4162038702595,15.9443276023941,12.2900510276758,12.5276448921731,30,4626.01440376804,7.28912446338174,84.397852958618,12,30
11.7985394421531,3.31732975002924,3.51960750095458,45.5674234595529,64.818408515654,24.417120303777,16.0508784640388,12.4247201014395,12.5364262128813,30,4626.52054208325,7.28151289149579,84.4406543136889,12,30
11.8235380226587,3.31500780645901,3.49559092028812,45.6579031015341,64.9868026277578,24.4180549650866,16.1538036029442,12.5552875437506,12.5431767611965,30,4627.37004124382,7.27501915651415,84.479416074627,12,30
11.8461629076253,3.3132462962493,3.47569949520084,45.7398366494018,65.133578404931,24.4190057510664,16.2507105223953,12.6781041077434,12.548052449911,30,4628.72957952426,7.26984466293444,84.5137283205417,12,30
11.8669899989792,3.31198237019924,3.46060201399371,45.8138784022869,65.2621969496373,24.4199680144047,16.3409682602275,12.7901085084016,12.5513031561659,30,4630.81423144802,7.26585818042776,84.543766207838,12,30
11.8859368769382,3.3113378371968,3.44976541413297,45.8819430273381,65.370299874947,24.4209414306842,16.4219162429929,12.8912028460945,12.5528806424765,30,4633.85943538486,7.26336294179604,84.569953199891,12,30
11.9034754650293,3.31121155207798,3.44423812127894,45.9437851723436,65.4617557613853,24.4219229220633,16.4939866746461,12.977678121714,12.5531734883114,30,4637.79051742977,7.26212928336141,84.5920189513833,12,30
11.9195546714308,3.31166608118091,3.44315504697488,46.0009648247899,65.5352412160794,24.4229127946772,16.5548266532748,13.0508316276712,12.5522967463552,30,4642.88946228062,7.26232580423699,84.6107639138314,12,30
11.9340837667708,3.31268767931782,3.44705313161813,46.0533310735429,65.5908068802688,24.4239150011439,16.6014798982043,13.1077735216567,12.5509257872491,30,4649.11181150027,7.26396089120207,84.6263611568715,12,30
11.9476658511428,3.31406468312009,3.45581295691903,46.1006034182677,65.6345727132917,24.4249264468494,16.6378773430698,13.1456669412852,12.5491256129782,30,4656.21014171235,7.26651541212012,84.6403914643959,12,30
11.9604171101222,3.31575419177973,3.46761697675345,46.1447555126636,65.6676546476034,24.4259471463759,16.6641308983097,13.1702603663163,12.546884091787,30,4664.23884664119,7.26989324598896,84.6529852339858,12,30
11.9724369827258,3.31769695167282,3.48209472915477,46.1861725416102,65.691608196172,24.426977593186,16.6805966880598,13.182036169155,12.5443404026957,30,4673.14173997538,7.27395908461282,84.6640875574493,12,30
11.9840918926841,3.31980047272393,3.49873565376942,46.2251836587972,65.7098315887119,24.4280127340014,16.6915476726587,13.1818610342904,12.5413799700743,30,4682.61424016577,7.27845241492058,84.6740256191733,12,30
11.9950742060039,3.32210436335189,3.51674517291411,46.2629822271684,65.720183178096,24.4290585040899,16.692190277109,13.1748024997445,12.538292831994,30,4693.13261306555,7.28352438226919,84.6824979930149,12,30
12.0055464625501,3.32448724247332,3.53646014036212,46.2985742421264,65.7262632642707,24.4301154196221,16.6850466976053,13.1557301367469,12.53560735077,30,4703.96444184797,7.28887408034655,84.6902242223941,12,30
12.0154729993712,3.32686565692274,3.55684000629572,46.3324904804051,65.7293703397312,24.4311881910428,16.6701548100504,13.1282066913096,12.5336337156849,30,4715.01188452226,7.29431721379044,84.6985606176778,12,30
12.0249748058114,3.3291632915259,3.57717052165611,46.3646188287214,65.7314394670913,24.4322765733891,16.6498369786585,13.0929842883943,12.5322926439289,30,4726.11864214296,7.2996547943386,84.7083487955229,12,30
12.0340072651704,3.33129870004263,3.59679995657706,46.39535384465,65.7337979710497,24.433385450504,16.6245973472831,13.0530370220815,12.5316393589,30,4737.11232777941,7.30470061689807,84.7194499931232,12,30
12.0424683232216,3.33317211052088,3.61503413090401,46.4245538021391,65.7381125963919,24.4345238284728,16.5956894023592,13.0095632163791,12.531773907105,30,4747.40906025022,7.30921799094047,84.7320640861176,12,30
12.0505359821396,3.33479642916774,3.63102373534485,46.4518916354871,65.7449777144842,24.4356853425152,16.5656487062345,12.9646656670143,12.5323764992245,30,4757.2858107773,7.31320154758363,84.7465096078269,12,30
12.0582169491828,3.33614779060004,3.64488175883002,46.4779449736849,65.7550377893767,24.4368710529388,16.5355489687424,12.9207669474045,12.5334055275499,30,4766.59232030795,7.31658423212968,84.7620157187316,12,30
12.0655125686428,3.3372144786352,3.65640707959676,46.5027373910712,65.7687385562001,24.4380819647455,16.5064099632395,12.8791418891456,12.534845188512,30,4775.16438497668,7.31932646806232,84.7785120150181,12,30
12.0724223524547,3.33799185057759,3.66550198639777,46.5262750266901,65.7863468360848,24.4393189946974,16.4791622146887,12.8409079768418,12.5366805082195,30,4782.88717966175,7.32140545309268,84.7959913852955,12,30
12.0789451442395,3.33848178218965,3.67212869225693,46.5485580104794,65.8079550696335,24.4405829256696,16.4546150887799,12.8070335224318,12.5388845584496,30,4789.68982575458,7.32281438014368,84.8144467007196,12,30
12.0850801301075,3.33869246107661,3.67630450568288,46.5695842283125,65.8334936540454,24.4418743724896,16.433434366752,12.778310583097,12.541416083886,30,4795.53948563248,7.32356229809472,84.8338372338157,12,30
12.090827662532,3.33863809224925,3.67810003169171,46.5893525825946,65.8627477672487,24.4431937634036,16.4161294403684,12.7553343350602,12.5442221949686,30,4800.43537866806,7.32367364647459,84.8540814616665,12,30
12.0961899052236,3.33833836518109,3.67763667775529,46.6078656430798,65.8953773873022,24.4445413341522,16.4030487598116,12.7384927626131,12.5472424380742,30,4804.40373838068,7.3231871487707,84.8750631334727,12,30
12.1011713135054,3.33781769570351,3.67508217418714,46.625131716503,65.9309396582888,24.4459171304898,16.3943820672114,12.7279665856245,12.5504125096935,30,4807.49355228002,7.32215411298551,84.8966412702257,12,30
12.1057789456295,3.33710431572895,3.67064421216702,46.6411663842787,65.9689125637893,24.447321015952,16.3901681588792,12.7237378550444,12.5536671254327,30,4809.77263109428,7.32063631761255,84.9186595831883,12,30
12.1100226315591,3.3362292873058,3.66456280714647,46.6559934956683,66.0087189563515,24.4487526830052,16.3903071004858,12.7256053517327,12.5569421365093,30,4811.32371205355,7.31870366712288,84.9409539539421,12,30
12.1139150052357,3.33522549945757,3.65710202396616,46.6696457034049,66.0497499990365,24.4502116667211,16.3945759116008,12.7332050765196,12.5601761536172,30,4812.24052377332,7.31643176035708,84.9633581392982,12,30
12.1174714086317,3.33412668658235,3.64854154725361,46.6821645622635,66.0913872503695,24.451697360669,16.4026467721896,12.7460343643472,12.5633119051444,30,4812.62389188376,7.3138994714573,84.9857083305753,12,30
12.1207096891338,3.33296649350769,3.63916841569284,46.6936002179864,66.1330228497997,24.4532090349098,16.4141068282273,12.7634783564968,12.5662974602693,30,4812.5780289786,7.311186612402,85.0078471374564,12,30
12.123649908472,3.33177760429284,3.62926912576472,46.7040107561987,66.174077406689,24.4547458559324,16.4284787165024,12.7848377024626,12.5690873566551,30,4812.20715234699,7.30837172777141,85.0296273286235,12,30
12.1263139831512,3.33059095045364,3.61912224624484,46.7134612698619,66.2140153117161,24.4563069081784,16.4452410062421,12.8093564702576,12.5716435988592,30,4811.61252987936,7.30553006790573,85.0509154262616,12,30
12.1287252750569,3.32943501018169,3.60899167649342,46.7220227091539,66.2523573373728,24.4578912166677,16.4638478576241,12.8362493297487,12.5739364784476,30,4810.89001888965,7.30273177584515,85.0715950522629,12,30
12.1309081515534,3.32833521353732,3.59912064997025,46.7297705733271,66.2886904320095,24.4594977700281,16.4837473274341,12.8647272076539,12.5759451422414,30,4810.12810412596,7.30004032886634,85.0915698764768,12,30
12.1328875321514,3.32731346438589,3.58972661625387,46.7367835060842,66.3226747303838,24.4611255431759,16.5043978867948,12.8940207111802,12.5776578613395,30,4809.406418105,7.29751126402491,85.1107659425071,12,30
12.1346884375437,3.32638778885113,3.58099710085719,46.7431418487493,66.3540478463541,24.4627735188585,16.5252828503798,12.9234007859376,12.5790719711068,30,4808.79469997766,7.29519121286741,85.1291332096973,12,30
12.1363355548737,3.32557211608571,3.57308663462487,46.7489262014533,66.382626578998,24.4644407073265,16.545922539524,12.9521962157549,12.5801934797422,30,4808.35214003945,7.29311725989654,85.1466461930834,12,30
12.1378528310937,3.32487619267925,3.56611481061003,46.7542160363828,66.4083062143567,24.4661261635051,16.5658841075912,12.979807728914,12.5810363685924,30,4808.12705489671,7.29131662799306,85.1633036567196,12,30
12.1392631042087,3.32430562709435,3.56016548723204,46.7590884008018,66.4310576508559,24.4678290011795,16.5847890426393,13.0057186203592,12.5816216280662,30,4808.15684207949,7.28980668196645,85.1791273882864,12,30
12.1405877801554,3.32386205554753,3.5552871128653,46.7636167410454,66.4509226145,24.4695484038865,16.6023184289122,13.029501929774,12.5819760889116,30,4808.46817016622,7.28859522961646,85.1941601454422,12,30
12.1418465610449,3.32354341633476,3.55149410253642,46.7678698722038,66.4680072601394,24.4712836323711,16.6182160975655,13.0508243263757,12.5821311167365,30,4809.07736833939,7.28768108941463,85.2084629162398,12,30
12.1430572285802,3.32334431592354,3.54876915750651,46.7719111118406,66.4824744757286,24.4730340286469,16.6322898303234,13.069446940059,12.5821212405667,30,4809.99098681316,7.28705488550652,85.222111667667,12,30
12.1442643111367,3.32319369285172,3.5470663850399,46.7757975899922,66.4955073291015,24.4747921055304,16.6452045307733,13.0852234452835,12.5818667947935,30,4811.32320186375,7.28655103176481,85.235193773923,12,30
12.1454379023386,3.32319116519832,3.54577815481764,46.7796722703003,66.5055874492364,24.4765650640198,16.6557680521528,13.0994263759557,12.5813978868076,30,4812.85371362783,7.28640505300335,85.2474786029879,12,30
12.1465856878563,3.3233292518808,3.54575653623692,46.7834391679036,66.5131202874212,24.4783572014773,16.6635715472973,13.1100115159159,12.5810970888802,30,4814.53591775548,7.28660586201146,85.2590392443479,12,30
12.1477482568333,3.32349194855991,3.54693754918878,46.7871229724283,66.5198062662871,24.4801565645973,16.6702145979134,13.1166339981085,12.5807226125312,30,4816.60563386898,7.28687636165337,85.2709447415006,12,30
12.1489140495497,3.32373943497907,3.5483289955958,46.7908539581179,66.5247395097592,24.4819700433354,16.674622856378,13.1218856023176,12.5803243568925,30,4818.88827423653,7.28736354456385,85.2825265634755,12,30
12.1500859056453,3.32405899800291,3.5504454972787,46.7945950206715,66.5284011314621,24.483801667289,16.6766231857152,13.1241773590993,12.580144138507,30,4821.23848070194,7.28804167771437,85.2939250524832,12,30
12.1512744447123,3.32439510471552,3.55317821870915,46.7983552694005,66.5315853948323,24.4856462853744,16.6771065853222,13.123444967006,12.5800715060104,30,4823.78711465231,7.28877645740943,85.3058275771715,12,30
12.1524814370386,3.3247355427668,3.55605219502564,46.8021687725245,66.5345069846766,24.4875035797185,16.676233815789,13.1210543902965,12.5800658157169,30,4826.49178000913,7.289538820703,85.3179371364662,12,30
12.1537066221071,3.32506988637069,3.55896298057826,46.806041197758,66.5374008030144,24.4893732773341,16.6741970385767,13.1172708352107,12.5801246604807,30,4829.29643759561,7.29030322633822,85.3301476406329,12,30
12.154948130921,3.32538856149354,3.56182143546255,46.8099716961889,66.540490890793,24.4912551679238,16.6712144935022,13.1123756031141,12.5802640933991,30,4832.14524918798,7.29104566316431,85.3424590029646,12,30
12.1562028716972,3.32568257643726,3.56454572828096,46.8139542594129,66.5439778427178,24.4931490868485,16.6675185802671,13.1066687652212,12.580503244143,30,4834.99066027175,7.29174321394242,85.3549234048991,12,30
12.1574668717841,3.32594370067485,3.56705902839883,46.8179789586466,66.5480336591676,24.4950548905334,16.6633443781727,13.1004595518683,12.5808565137166,30,4837.79435173966,7.29237460219379,85.3676026081749,12,30
12.1587355614708,3.32616483046905,3.5692910291653,46.822033042922,66.5527984037232,24.4969724352239,16.6589203790467,13.0940533490074,12.5813311619603,30,4840.52550459489,7.29292112187234,85.3805458204794,12,30
12.1600040172201,3.3263403162106,3.57118106602707,46.8261018504292,66.5583780582071,24.4989015619368,16.6544614621082,13.0877393130197,12.581927709302,30,4843.15911792107,7.29336745309281,85.3937824594833,12,30
12.1612671767434,3.32646615801928,3.57268090624387,46.8301695893022,66.5648438147482,24.5008420870603,16.650163691999,13.0817805558643,12.5826413742438,30,4845.67505374848,7.29370216328385,85.4073228338748,12,30
12.1625200325571,3.32654007123367,3.57375641271602,46.8342200277105,66.5722326366831,24.5027937969463,16.6462004768302,13.076407279283,12.5834635725262,30,4848.05767572422,7.29391790339883,85.4211618412871,12,30
12.1637578020878,3.3265614432079,3.57438809713977,46.8382371145891,66.5805490083563,24.5047564450879,16.642719809679,13.0718123796905,12.5843831356818,30,4850.2958164231,7.29401134999066,85.4352829533304,12,30
12.1649760785296,3.32653121447101,3.57457074641411,46.8422055248419,66.5897676753063,24.5067297509443,16.6398424549423,13.0681490632649,12.5853872108652,30,4852.38280218192,7.29398296780903,85.4496615016191,12,30
12.1661709551551,3.32645171261838,3.57431240516621,46.8461111425506,66.5998370886842,24.5087133998783,16.6376610126059,13.065530049776,12.5864619151838,30,4854.31638525763,7.29383665631879,85.4642671307345,12,30
12.1673391231061,3.32632645900867,3.57363295674486,46.8499414588441,66.6106833225181,24.5107070439495,16.6362398148792,13.064028055861,12.5875928334302,30,4856.09853012179,7.29357932498749,85.4790656040086,12,30
12.1684779419607,3.32615996139409,3.57256247382065,46.8536858845762,66.6222142654555,24.5127103034362,16.6356156025365,13.0636773410585,12.588765425823,30,4857.73505690101,7.29322042699234,85.4940201999807,12,30
12.1695854833513,3.325957500961,3.57113945018875,46.8573359756258,66.6343239257,24.5147227690237,16.6357989096108,13.0644761523477,12.5899653846135,30,4859.23517174599,7.29277147101154,85.5090928802852,12,30
12.1706605488498,3.32572491978563,3.56940898555808,46.8608855717701,66.6468967150803,24.5167440045909,16.6367760652198,13.0663899240527,12.5911789558929,30,4860.610919432,7.29224552559175,85.5242453347924,12,30
