Pdis,Psuc,T0,Tc,Tdis,Tret,Tsuc,Tsh,Tsup,CondFan,CprPower,Density,Cpr,Tset,Tamb
8.30642770915612,3.29088579769815,3.26843769811427,32.6540487452708,42.6210849003697,14.1590527792526,10.0265320851576,6.7580980393754,7.00814350142582,62.8227638363424,1281.56376723934,7.303490304216,34.0704077895645,7,30
8.2755906629142,3.38155363811601,3.26841847712905,32.6540609690498,41.7956531381261,14.1591449377366,10.0418739442872,6.75811360802851,7.07666059915755,62.8228996561088,583.302507121291,7.50575589967641,6.81410531804233,7,30
8.23302220321635,3.60580704065532,4.04159474486261,32.5222421872691,39.7428614607611,14.1600322396883,10.0862688388893,6.0002791994246,7.56782552580199,61.3582465252124,48.4601088796907,8.00617391397127,6.84200591974201,7,30
8.15426468773753,3.81044966395213,5.88789274556791,32.3396671062421,37.3968475182516,14.160344096613,10.0799197560424,4.19837609332143,8.42311247646268,59.3296345138008,50.3869734646021,8.46385355883208,7.04200591974201,7,30
8.07472969877642,4.00213970784403,7.4975566607381,31.9999980143255,34.7378977120914,14.1472392360591,10.070173093066,2.58236309530434,9.38939090945729,55.5555334925051,53.6216353214914,8.89295048253551,7.24200591974201,7,30
7.9937929635365,4.15147069150897,8.94648186667894,31.6544626554739,31.2917858663592,14.1079541951755,10.1211466454174,1.12369122638711,10.2593956845656,51.7162517274875,60.1589788968754,9.22644243406941,7.44200591974201,7,30
7.92231458517436,4.18129233750819,10.0389496177381,31.3001994447447,30.9765596544776,14.045860503113,10.2200102645122,0.0821970276793422,10.9004682775801,47.7799938304966,65.4423554459101,9.29152238346117,7.64200591974202,7,30
7.85404460985313,4.17868837237064,10.2535152849194,30.985085110374,30.6586762676399,13.9756398999038,10.302052519347,-0.0335050204072331,11.3165913157977,44.2787234485997,65.0548801160875,9.28427441429585,7.84200591974201,7,30
7.79490459541529,4.17701423085001,10.2348264237423,30.6821116333682,30.3833044369242,13.9129137315128,10.366866186813,0.0672260956047239,11.7674625263717,40.9123514818683,64.5346024562401,9.27940755217507,8.04200591974202,7,30
7.74713616423043,4.13811871041549,10.2228062899027,30.4180497886006,30.1608817596415,13.8666732787559,10.4045508189923,0.144059896910278,12.2559276955107,37.9783309844514,148.566981423114,9.19169651785896,8.24200591974201,7,30
7.71014855036941,4.0555375176674,9.94250157801554,30.2036595029388,29.9886574705618,13.8339637693534,10.3871500455966,0.462049240976739,12.6890404047344,35.5962166993202,384.942458476043,9.00718533575693,8.44200591974201,7,30
7.68316742991295,3.94453280201238,9.3406439308485,30.0369703392096,29.8630261090296,13.8088021334657,10.2933665730566,1.04650611474807,12.9932545298212,33.744114880107,617.440747422464,8.76038083595078,8.64200591974202,7,30
7.66431850422828,3.87837693249122,8.51672337142662,29.9149966063283,29.7752604359544,13.7881302721011,10.1343891588252,1.77664320163001,12.4057646107977,32.3888511814257,699.479401600354,8.61494566942994,8.84200591974201,7,30
7.64612360900212,3.97080094051872,8.01723596405253,29.8295947177443,29.6905401047923,13.7717249721687,10.0040755614386,2.1171531947727,10.6183401554744,31.4399413082697,377.778346015557,8.8238865870492,9.04200591974202,7,30
7.63632912934392,3.94388666696416,8.71327880304585,29.7470060589635,29.6449343703326,13.7726548852875,9.91807807356861,1.29079675839279,9.91549735110931,30.522289544039,356.32606035394,8.76504175138093,9.24200591974201,7,30
7.63016720002322,3.92206454265355,8.51187598985274,29.7024865554855,29.6162427683114,13.8142998024649,9.82384761031534,1.40620208371587,9.85666707755621,30.0276283942834,424.204537203309,8.71771724307885,9.35652567755926,7,30
7.63121248110839,3.93073349029464,8.3478066522203,29.6744562940251,29.6211098784867,13.8825890176818,9.74754452537763,1.47604095809504,10.1750021375358,29.7161810447234,451.206896944361,8.7383650576794,9.36387361789028,7,30
7.63517456753004,3.94594533873849,8.41306725283448,29.6792124172893,29.6395584196606,13.94229742564,9.69731747327523,1.33447727254315,10.5358729494882,29.7690268587701,460.332549462993,8.77324851997477,9.56387361789028,7,30
7.64060793217536,3.95949065382864,8.52731827831235,29.6972358168825,29.6648576283867,13.9742666886668,9.666126971484,1.16999919496288,10.7500999734139,29.9692868542504,472.68038485774,8.80409609794062,9.76387361789028,7,30
7.64812688620771,3.96724574639287,8.62876987543603,29.7219405682986,29.6998679028454,13.9806537605145,9.64718269704213,1.03735709604797,10.7919198253134,30.2437840922071,492.605676512341,8.82177741576598,9.96387361789028,7,30
7.66022775117562,3.94429142424503,8.68673469769607,29.7561064002349,29.7562127883029,13.9753121359485,9.62874095934018,0.960447999346059,10.9342142994644,30.6234044470544,577.032602765775,8.77066222387393,10.1638736178903,7,30
7.67398573939324,3.87945699895099,8.5149125977926,29.8110392042692,29.8202736857928,13.9709563902957,9.59343199885069,1.11382836154758,11.3777493070659,31.2337689363239,731.982407810803,8.62602256768353,10.3638736178903,7,30
7.68683675543196,3.82075239427253,8.02544269207425,29.8734153536592,29.8801114766147,13.9687944018217,9.54295127372961,1.56798930677644,11.4431852336296,31.92683726288,812.708179110695,8.49536311653274,10.5638736178903,7,30
7.70322329499495,3.74454985319495,7.57683090452701,29.9316034730079,30.824480736941,13.9609792821137,9.50498827849907,1.9661203692026,11.5449279974981,32.57337192231,928.591634513595,8.32533720016698,10.7638736178903,7,30
7.7159683102025,3.75514891511866,6.98657902121715,30.0056939765711,32.4536179954172,13.9538586200789,9.53848241225751,2.51840925728192,12.2252953874737,33.3965997396793,571.795731220169,8.34854757747757,10.9638736178903,7,30
7.7214031208014,3.84699825517493,7.06922400574723,30.0632376329556,32.6116194318179,13.9516326023077,9.60841572214963,2.46925840651028,12.5937287087571,34.035973699507,265.693221260001,8.55309690458787,11.1638736178903,7,30
7.72383995830999,3.82084051191665,7.77804398908631,30.0877540098992,32.4912738740303,13.9414973608558,9.69028510479609,1.83037173306332,12.2614432577639,34.3083778877687,390.638954079794,8.49323647004866,11.3638736178903,7,30
7.72599642034663,3.72285487005454,7.57750821994438,30.0987423428036,32.9495958899053,13.9253162061168,9.76979459320626,2.11277688485171,11.6449554324992,34.4304704755953,604.412681866395,8.27270338061313,11.5638736178903,7,30
7.72687959042661,3.63384275480446,6.81685563500281,30.1084642139724,33.7902790607204,13.9206225549987,9.84922949325767,2.95293895820345,11.131459952282,34.5384912663601,673.963463212613,8.07238570324156,11.7638736178903,7,30
7.72690703820923,3.56016506979346,6.11247869704681,30.1124451764975,34.5856042664213,13.9363785320725,9.93394188302727,3.73675079621086,10.871202862871,34.5827241833054,680.845380423805,7.90639519625045,11.9638736178903,7,30
7.72642488347105,3.49232902820282,5.51939302102579,30.1125688941714,35.3996193314335,13.967585217251,10.0253031933288,4.41454886200148,10.790554537116,34.584098824127,670.411172616921,7.75346066301843,11.7410321515384,7,30
7.72484948550991,3.4342429073521,4.96496555110656,30.1103955898822,36.1553525661278,14.0028629822145,10.12308783535,5.06033764222224,10.8732281224578,34.5599509986913,631.532387874357,7.62230380582027,11.7121545175328,7,30
7.72323832135225,3.38244700985819,4.48363204344486,30.1032937986482,36.8143067351428,14.0327681615963,10.2256909230195,5.63945579190511,11.0815480858059,34.4810422072025,601.138730736032,7.50520091807636,11.879575615739,7,30
7.72660722470765,3.31849463602475,4.04913353893119,30.0960296481829,37.4924343867,14.0528020113776,10.3229499510473,6.17655738408831,11.1773500448553,34.4003294242542,616.772399790411,7.36110732298958,12.079575615739,7,30
7.72985426273772,3.24393914369792,3.50556614347181,30.111217501909,38.2686131184844,14.0614181176076,10.4083881214734,6.81738380757554,11.0409058830248,34.5690833545449,667.502293764671,7.19360380067059,12.279575615739,7,30
7.73153094990184,3.17886970383234,2.86164039336404,30.1258512403775,39.148294370803,14.0636817051556,10.4864649873551,7.54674772810932,10.7195403171133,34.7316804486386,678.086662080309,7.04744847619868,12.3144882888781,7,30
7.73135302551476,3.13040505555724,2.29029798732921,30.1334059163924,39.9932320129283,14.0686284341302,10.5653779125679,8.19616700002592,10.3761204007713,34.8156212932489,639.199767842729,6.93837501713182,11.9648841584129,7,30
7.7285171283377,3.1105170094452,1.85889240368641,30.1326042981368,40.6237900363502,14.0829105630074,10.655998396672,8.70648550888149,10.2692350334276,34.8067144237417,547.447022738343,6.89289078076295,11.5658742205367,7,30
7.72276418568786,3.11544623134108,1.68037495449391,30.1198256086415,40.8665573504907,14.1068916162248,10.7629217582081,8.97562344217806,10.5031449267557,34.6647289849058,450.979554639261,6.90251681034117,11.4595128468308,7,30
7.71583594486912,3.12300047091772,1.72470175966208,30.0938917265187,40.8861222132319,14.1326522788295,10.8775342748899,9.03821999854597,10.8572602755663,34.376574739097,403.519747275261,6.91788938588142,11.6595128468308,7,30
7.71056978020541,3.1134480078121,1.79253003341415,30.0626403721415,40.8889240447477,14.1479722163255,10.9836325414245,9.08500424147576,11.0103697132615,34.0293374682391,422.781246179433,6.89526110638234,11.8595128468308,7,30
7.70724972963196,3.08723181668118,1.70673891629843,30.0388720470262,41.011996077453,14.1482933605284,11.0723108720809,9.27689362512604,10.8372963858099,33.7652449669583,472.216419571116,6.83575611327606,12.0595128468308,7,30
7.7042326866354,3.06088116430905,1.47024672306355,30.0238810394941,41.2542910082835,14.1417674062723,11.1486308591026,9.60206414901734,10.4432772099349,33.598678216601,498.101660834175,6.77613135309256,12.2595128468308,7,30
7.70115487232143,3.04911397261296,1.23098173670724,30.0102539846831,41.497050618762,14.1413751080679,11.2237334223142,9.9176491223954,10.0105870624996,33.4472664964785,479.88437024416,6.74900333147878,11.9089531457798,7,30
7.69680392667192,3.06684029501124,1.12362371030213,29.9963483051757,41.5737361967594,14.1550071775321,11.3098968504062,10.1001097120121,9.81303891359056,33.2927589463964,396.422127364256,6.78738389627762,11.3498948602123,7,30
7.6902631077648,3.11509103181347,1.28522896398709,29.9766834330002,41.3388773282288,14.1823210219279,11.4159237199266,10.0246678864191,10.0637997864984,33.0742603666686,284.224551451811,6.89343414488963,11.0951699393984,7,30
7.68328941025466,3.16819895830523,1.72150937356611,29.9471052898453,40.8499306944608,14.2142743043624,11.5345891695637,9.69441434636047,10.5629988650415,32.7456143316144,217.54672488347,7.01010744243731,11.2951699393984,7,30
7.67913087566455,3.19587194793182,2.19574864093192,29.9155487686294,40.3436903688909,14.2345090787887,11.6471657978915,9.33884052863181,10.9102688579587,32.3949863181048,239.946280861743,7.07023063293522,11.4951699393984,7,30
7.67798086982996,3.19193037931624,2.44044616881735,29.8967208153252,39.998648800508,14.2335896722989,11.7383247836626,9.20671962907414,10.8921379163829,32.1857868369465,323.727176856678,7.06027569416558,11.6951699393984,7,30
7.67737339848317,3.17594900046187,2.40569255499759,29.8915127573504,39.9362925541069,14.2192592397954,11.8104186593622,9.33263222866498,10.5996794737159,32.1279195261158,391.632666187355,7.02379010507771,11.8951699393984,7,30
7.67677749603744,3.16582507295923,2.26444301248671,29.8887614508394,40.0264368356816,14.2080383824348,11.8738426281633,9.54597564687549,10.2193190295421,32.0973494537712,410.754961483004,7.00045478144109,12.0951699393984,7,30
7.67652468774345,3.17013650739788,2.17468132676271,29.8860623819771,40.0965285847981,14.2109745216799,11.9382457002199,9.69916130140058,9.90004467570481,32.0673597997452,389.041662866143,7.00921346336615,11.8244858967834,7,30
7.67566502241114,3.19730992680026,2.21293465932871,29.8849172693996,39.9935742143066,14.2291692109352,12.0117859096771,9.72531104089114,9.81072923610458,32.0546363266626,321.291694406028,7.06868803988134,11.3961575528784,7,30
7.67333680054139,3.24721891531585,2.45311693111717,29.8810231436873,39.6138692796235,14.2574167891343,12.0996600297079,9.55866897855992,10.0702985188855,32.0113682631927,233.415849962565,7.17851961757368,11.2784186381894,7,30
7.67076540148287,3.29760468888892,2.89020479969867,29.8704750784388,39.0525941360188,14.2858307686645,12.1953150689031,9.20945523000927,10.4915836774327,31.8941675382089,194.536928602587,7.28929073664516,11.4784186381894,7,30
7.66985662724694,3.3260635062328,3.3262708341361,29.8588224931283,38.5435148622853,14.3016100699171,12.2845069175141,8.86904423476705,10.7503521185556,31.7646943680927,231.027230836277,7.35137205713581,11.6784186381894,7,30
7.67062409193042,3.32278369327832,3.57031504117663,29.8547035768344,38.2645585141768,14.2994408370947,12.3557554801288,8.71419187633745,10.6998951529737,31.7189286314936,308.299840340597,7.34311671147328,11.8784186381894,7,30
7.67191929405006,3.30803861081042,3.54227133479492,29.8581820477046,38.2217730250018,14.2877757393143,12.4120434362977,8.81348414533386,10.4403571949106,31.7575783078288,366.940689261527,7.30957885414031,12.0784186381894,7,30
7.67347566031563,3.29893206866566,3.41593216605759,29.864051851254,38.2952491484576,14.2804407158575,12.4618392835106,8.99611127024008,10.1276105869983,31.822798347267,384.030045758719,7.28866889344466,12.2754210164567,7,30
7.6753143443865,3.30285501090899,3.33768941228567,29.8711042535396,38.3551637370067,14.2858730464947,12.5125057118835,9.12414987122492,9.87329699471661,31.9011583726617,368.144755969163,7.29670837875636,11.8551000494623,7,30
7.67628500250028,3.33538061107819,3.37141533120666,29.8794345425158,38.2717515712635,14.3041571853683,12.5719211342213,9.14109038067681,9.85904905825265,31.9937171390646,293.293336203046,7.36819351331202,11.5068586100668,7,30
7.67566048140224,3.39459820835636,3.64986449505602,29.8838315723707,37.9180137848947,14.3303376040785,12.6460632823745,8.92205663916531,10.1910788741835,32.0425730263411,204.424452298475,7.49879259582783,11.4905576230948,7,30
7.6747700759005,3.44413057879889,4.15152124801119,29.8810025728813,37.4096646782737,14.3546673955491,12.7243964096247,8.49454203436335,10.6000188110604,32.0111396986811,181.439249094491,7.60779684369523,11.6905576230948,7,30
7.67491221281548,3.4584345539889,4.56600487285039,29.8769688519473,36.9966740297274,14.3651307498589,12.7917331958644,8.15839153677433,10.7949776901693,31.9663205771917,240.598548092761,7.63864428731588,11.8905576230948,7,30
7.6761776572401,3.4437898479664,4.68484931720928,29.8776127851725,36.8433254270016,14.3592342226885,12.8414175898839,8.10688387865508,10.6987166843086,31.9734753908051,326.702381813535,7.60540204291887,12.0905576230948,7,30
7.67801684724962,3.42265058971902,4.56316930704855,29.8833453246091,36.9095689911559,14.3474368042191,12.8786151442914,8.27824828283531,10.4328765936855,32.0371702734342,380.93112616361,7.55791152238302,12.2905576230948,7,30
7.68020484657826,3.40863351791857,4.38682633667099,29.8916756980182,37.0663585388967,14.3424707153139,12.9110997749343,8.49178880762042,10.1406221400503,32.1297299779802,392.527408825282,7.52631882821143,12.4219759520525,7,30
7.68250531805927,3.40860080681052,4.26943576702342,29.9015840021003,37.191444206782,14.3507267066549,12.9455163559843,8.64166400791083,9.93082618863912,32.2398222455591,369.438515313829,7.52576991911299,12.0226378326019,7,30
7.68398408686158,3.43765636275743,4.26916138486763,29.9119993426568,37.1568634900905,14.3707047121742,12.9893714088964,8.67635497111667,9.97000924700814,32.3555482517419,288.970010881337,7.58970702523307,11.7319034737723,7,30
7.68393186236512,3.48929355137046,4.51208958100602,29.9186932006377,36.8589709742148,14.396796493722,13.0468005112761,8.47728182789041,10.3159419099089,32.4299244515304,205.531329453484,7.7036163745373,11.7918568063794,7,30
7.68334544644958,3.52525729005393,4.93996436544734,29.9184568155208,36.4421247017568,14.4191598967074,13.1062837466667,8.10683614582877,10.6808082670989,32.4272979502312,201.332137204023,7.78266973682486,11.9918568063794,7,30
7.68352605983902,3.52584583879686,5.23510996098798,29.9158024226535,36.1593570822763,14.4273624252314,13.1539558659192,7.87117378567876,10.8050089000854,32.3978046961498,273.969815312899,7.78329470470898,12.1918568063794,7,30
7.68471057222852,3.50382353192931,5.2399208249895,29.9166199796282,36.1283807016807,14.4211905199008,13.1863624776373,7.91403504092966,10.6629136857973,32.4068886625355,355.656474085322,7.73391261558137,12.3918568063794,7,30
7.68653959253939,3.47953193024199,5.05948751572367,29.9219813851229,36.2802264461106,14.4117209067057,13.2091556378212,8.12687496191364,10.3837475054701,32.4664598346993,398.777314111125,7.67963632986556,12.5918568063794,7,30
7.68872613911744,3.46416256462699,4.8594513695511,29.9302587763722,36.486402256663,14.4106248340905,13.2294197755186,8.3497042682701,10.102683791184,32.5584308485797,400.836642088885,7.64521829241807,12.5035654857463,7,30
7.69070846143786,3.47026138460018,4.73233487739276,29.9401522386983,36.613599121437,14.4225042487417,13.2545988208501,8.49708489812588,9.96966138214685,32.6683582077591,351.513693903356,7.6584076661301,12.1117254308718,7,30
7.68783200292519,3.50615472949332,4.78282840997457,29.9491198179056,36.5001629662029,14.4450410601282,13.2920157288266,8.47177041087554,10.1339357076897,32.7679979767285,260.223528757089,7.73758722228638,11.9260485958849,7,30
7.68458611129228,3.55195261653671,5.07862852351235,29.9361067986677,36.1609803770089,14.4709954840035,13.3402281001801,8.21338720531429,10.5188596779558,32.623408874085,199.399070608822,7.83860771506547,12.1260485958849,7,30
7.68122914985891,3.5701108213874,5.45270478387062,29.9214180723959,35.8004450066917,14.489187514157,13.385233596672,7.88752331630945,10.8023832435732,32.460200804399,233.19289798498,7.87828521347396,12.3260485958849,7,30
7.67791389955644,3.55356131375632,5.59999883860263,29.9062218055466,35.6449498588402,14.4918888688054,13.4158278299811,7.78523475806935,10.794691249264,32.291353394962,324.633196076879,7.84109025338873,12.5260485958849,7,30
7.67501140661298,3.52549504087439,5.46577730397257,29.891209449435,35.7263619604447,14.4838063861934,13.4338128296358,7.95005052600851,10.5673830488681,32.1245494381666,391.605304761032,7.77851099465333,12.7260485958849,7,30
7.67245856622613,3.50278458705691,5.23705343711191,29.8780621647448,35.9233186457119,14.4779265753536,13.4463236760359,8.19675939252392,10.2751879307498,31.978468497165,411.018345045318,7.72791029102581,12.9002365581118,7,30
7.66996139827314,3.49158942367097,5.05095380082912,29.8664955909785,36.1117021797493,14.4832346014769,13.4595588421932,8.39536987520677,10.0312163946697,31.8499510108722,395.971160147886,7.70286889701408,12.4925733546605,7,30
7.66949070686177,3.51195064882418,4.95887545873234,29.8551784583778,36.1682363628242,14.501086021028,13.4820734051288,8.50068338346091,10.0297882148552,31.7242050930866,309.294608084166,7.74775113232329,12.1455285252898,7,30
7.67115391099245,3.56053765181658,5.12617548816326,29.853044980397,35.9573692705019,14.5271732386544,13.5203654352344,8.35589791696555,10.3755538074519,31.7004997821887,209.652909014161,7.85507220711314,12.147193271824,7,30
7.67298770204017,3.59710261305461,5.52241573513737,29.8605832563984,35.5906581515692,14.5517475320392,13.5638194442305,7.99794970009702,10.7898834195959,31.7842584044267,193.774529201511,7.93562696201558,12.347193271824,7,30
7.67353301658647,3.5962405356409,5.81789235447673,29.868893271593,35.325101787567,14.5625725256792,13.5971377046311,7.74592708975376,10.9730592251895,31.8765919065887,270.403568114254,7.93322671535869,12.547193271824,7,30
7.67295757704432,3.56863667351388,5.81095253722413,29.8713641329062,35.3156027197194,14.5573104228225,13.6148096032043,7.78618516740693,10.862948818021,31.9040459211799,364.706182685031,7.87168731785551,12.747193271824,7,30
