Pdis,Psuc,T0,Tc,Tdis,Tret,Tsuc,Tsh,Tsup,CondFan,CprPower,Density,Cpr,Tset,Tamb
8.28585776715116,3.91844627246657,8.32001067712366,32.5662362089457,36.9746420844411,19.3409914195766,14.4928420714735,6.1724996618957,12.0154734809889,61.8470689882852,813.842377071388,8.63474684956557,29.2003140179793,12,10
8.25410956446593,4.0065393154876,8.32053541537454,32.5661718138236,36.2285371868583,19.3411115840304,14.5098515037292,6.17230665609901,12.0793302598391,61.8463534869287,275.91779539988,8.82997903052832,5.84003574946911,12,10
8.20974046764733,4.22396563342221,8.97910926279718,32.4301987718254,34.442957922974,19.3419771811991,14.5705405872935,5.53074224093206,12.531193558672,60.3355419091713,50.2878664318354,9.31172595619093,5.86623992327998,12,10
8.12736721087643,4.41936526035317,10.5585282125332,32.2395118689242,32.0877264846559,19.3422082546407,14.608786250774,4.01201237476027,13.2725247873091,58.2167985436027,53.444622645454,9.74518417221568,6.05430363219732,12,10
8.0428593886001,4.60762167847237,11.925913087994,31.8834281966828,31.4962636395659,19.3297026295076,14.6233543328127,2.68287316277997,14.0978086623246,54.2603132964751,59.7585011092391,10.1634393564746,6.25430363219732,12,10
7.95274714334968,4.75587046665976,13.2004416431361,31.5152852867207,31.118261839331,19.2938486700256,14.6729603035849,1.42291268967665,14.8406702592434,50.169836519119,69.1986610692294,10.4922467987698,6.45430363219732,12,10
7.87472541665203,4.83577103742931,14.1765166943423,31.1195082434431,30.7549716724183,19.2382588907171,14.7620987845582,0.496443609242647,15.4165013547085,45.7723138160342,69.1165488707917,10.6682735236581,6.65430363219732,12,10
7.80890948623163,4.84655165892793,14.6930256078255,30.7740989362141,30.4485149793923,19.1753606735959,14.8591123530646,0.0690731767327861,15.8640737477322,41.9344326246011,68.5657826494621,10.6903394528088,6.85430363219732,12,10
7.75297277342746,4.87104137476021,14.7622183058411,30.4807178994741,30.1880585835742,19.1182613135123,14.9467174522134,0.0968940472234863,16.3879459416575,38.6746433274899,67.8727735338591,10.7430806355887,7.05430363219732,12,10
7.70686618486878,4.87285082310343,14.9189659924152,30.2299081448037,29.9733738930115,19.0734344699944,15.029745673749,0.0277514597981963,17.0237383942763,35.8878682755965,67.1576289716971,10.745452625688,7.25430363219732,12,10
7.67025502232328,4.82055294416132,14.9305236920372,30.0221489086083,29.8029024626167,19.0380659461561,15.0804081435735,0.0992219817117643,17.6094531743371,33.57943231787,66.4607894387521,10.6281447286256,7.45430363219732,12,10
7.64270219703099,4.72691081501106,14.5951523747972,29.8565093026137,29.6746090894369,19.0061363431553,15.0688872995993,0.485255768776312,18.0544146708414,31.7389922512638,65.7927744332654,10.4201801271485,7.65430363219732,12,10
7.62351452128151,4.61332416447509,13.9876816858985,29.7314593675962,29.5852661048513,18.9766016568252,14.9819563537196,1.08120561370083,18.280829211237,30.3495485288472,132.781061529578,10.169373285952,7.85430363219732,12,10
7.61038404375394,4.58830640309673,13.238425386322,29.6441745052515,29.524127066092,18.9515077678309,14.8464621110568,1.74353096739765,17.1607374236285,29.3797167250167,123.093138678974,10.1163107852061,8.05430363219732,12,10
7.59958244190729,4.66512525146589,13.0715181038305,29.5843485234335,29.4738318995546,18.9339406091302,14.747909310523,1.77494400722628,15.5459475950686,28.7149835937056,63.9691463002487,10.288960195128,8.25430363219732,12,10
7.59638770622304,4.63996040510611,13.5818427028913,29.5350752434952,29.4589563500237,18.9434131640621,14.6805978700197,1.16606660763171,15.0520653481928,28.1675027055024,63.4179123023232,10.2342761432316,8.45430363219732,12,10
7.60370883807176,4.6177300806548,13.4153755365116,29.5204918299153,29.4930455111316,18.9953916831673,14.6128101617265,1.26522233350806,15.567086292558,28.005464776837,62.8918327633126,10.186118223019,8.57169534226689,12,10
7.61141640860123,4.57755551024144,13.2677483503168,29.5539046965418,29.5289340347859,19.0662983289266,14.5445063200896,1.34506181140972,16.378853514516,28.3767188504644,79.9481488046973,10.0980527135169,8.77169534226689,12,10
7.61593722146584,4.60724884685279,12.9995802733463,29.5890550681945,29.5499841567158,19.1111932097118,14.4848360964594,1.54492604674334,16.1016299177676,28.7672785354946,62.0808385333314,10.1652156101991,8.97169534226689,12,10
7.62368141476094,4.63382578585601,13.1979570005466,29.6096597670956,29.5860432058277,19.1140948989976,14.4591400426343,1.28687909591281,15.6176055507387,28.9962196343955,61.629793280664,10.2248239191507,9.17169534226689,12,10
7.63180280110407,4.62867696549162,13.3746905727956,29.6449344173567,29.6238585673307,19.1092819267552,14.4446164602153,1.08444946983872,15.3102842538868,29.3881601928522,61.1899069394924,10.2136436831311,9.37169534226689,12,10
7.6439462131769,4.59857511757042,13.3405118275551,29.6818982098607,29.6804015635646,19.1215376236015,14.4289052849612,1.10410463266015,15.284337688263,29.7988689984518,60.7625976836358,10.1469719279987,9.23837536158283,12,10
7.6535908417623,4.58713439089486,13.1401099035937,29.7371127085846,29.7253095510816,19.1468603606744,14.4201941451853,1.28879538136749,15.4291670412877,30.4123634287173,60.786191023305,10.1216843193547,9.27698677450875,12,10
7.66343602706544,4.57179100262934,13.0636820076361,29.7809185403974,29.7711513846766,19.1716905092218,14.4298065206821,1.3565121375492,15.6915058989856,30.8990948933045,87.5793018191751,10.0873733687135,9.47698677450875,12,10
7.67517339796194,4.67568326686377,12.9609550772904,29.8255924627935,29.8258037438666,19.1875606688784,14.5315972897056,1.46885144339171,16.4992782397137,31.3954718088161,60.4672351496138,10.3165698290542,9.67698677450876,12,10
7.68638550391376,4.77298874551826,13.6514814151675,29.8787960278755,29.8780103280462,19.1931535906028,14.6882683967264,0.880115874538149,17.6607120058644,31.9866225319496,60.115306262966,10.5300343798621,9.87698677450875,12,10
7.69445354719583,4.68099375656597,14.287727955672,29.9295614920221,29.9155773098942,19.179638264215,14.8140944745013,0.400540441054375,18.3397174725419,32.5506832446902,59.7472837473759,10.3229847196263,10.0769867745088,12,10
7.70121743221873,4.52898376378225,13.6864632397983,29.9660569942651,29.947071779742,19.142667961491,14.8882633886755,1.12763123470296,18.6069653966964,32.9561888251678,129.175668521155,9.98369313379982,10.2769867745088,12,10
7.70871496548905,4.39761449138242,12.6729591137719,29.9966309947612,29.9819823133651,19.1002699479423,14.9208953514652,2.21530427490364,18.26542989636,33.2958999417909,300.268543259344,9.69125882024357,10.4769867745088,12,10
7.72059073314047,4.28090695098657,11.7760090697838,30.0304976105996,30.0372790851094,19.0701083880643,14.9398246849419,3.14488628168141,18.0841121460653,33.6721956733287,460.553310421391,9.43178124937857,10.6769867745088,12,10
7.73297916881014,4.13901328128474,10.9618872939106,30.084090162946,30.094962977183,19.061681104254,14.9386674386932,3.97793739103122,18.1224064907989,34.2676684771782,653.848066367024,9.11688187898134,10.8769867745088,12,10
7.74522265008694,3.97697753671394,9.94897092159135,30.1399301869524,30.1519719225743,19.0693762420706,14.9219432369488,4.98969651710189,17.8597058317786,34.8881131883603,861.159556104018,8.757721282691,11.0769867745088,12,10
7.7557093002448,3.80212850513387,8.75935194892241,30.19505072802,32.2092322035377,19.0812675709473,14.9011214372636,6.16259128802636,17.4207963154695,35.5005636446669,924.151084355943,8.37040714626207,11.2769867745088,12,10
7.75795795165907,3.64513936527077,7.4334099540269,30.2422098464907,33.9879911347479,19.0965013457353,14.8838821335095,7.46771148323666,16.9517111263015,36.0245538498961,932.344492003957,8.02281163132165,11.4769867745088,12,10
7.75468219686667,3.51021488915445,6.20259797057309,30.2523159227982,35.6156358256411,19.1188705297895,14.8752167548988,8.68128416293638,16.4907146799373,36.136843586647,886.330517390861,7.7241193637713,11.6769867745088,12,10
7.74891790465069,3.39374715573036,5.11194244803767,30.237593019355,37.0392346403383,19.1486605393922,14.8784659067661,9.76327430686115,16.0446535185939,35.9732557706113,831.793807166991,7.46624623532353,11.8769867745088,12,10
7.74168040058112,3.29933024990156,4.14435931406223,30.2116739978539,38.3427111612675,19.1837521823699,14.8999345778923,10.7341065927038,15.6085618189564,35.685266642821,755.845885516491,7.25702633435582,11.6350694726833,12,10
7.7325883610109,3.2385617123704,3.34111401743195,30.1791101541655,39.4336268318229,19.2223564845103,14.9490992638481,11.5588205604603,15.3250822786314,35.3234461573948,658.389037053018,7.12195377485398,11.1034420446146,12,10
7.71995276534259,3.21608100398758,2.81475892438499,30.1381696764421,40.1868964096449,19.2630807369116,15.0341061265066,12.1343403394631,15.3901197369929,34.8685519604683,520.255246907435,7.07113474143058,10.7560117008172,12,10
7.70457966864008,3.21367804199704,2.61811858693216,30.0812127415752,40.5580382976111,19.3028547217518,15.1456911051706,12.4159875395745,15.6761113419591,34.2356971286133,410.723893244769,7.06438011942595,10.8710074532343,12,10
7.69655738914241,3.21498401224822,2.59703737291858,30.0118214000062,40.7219323820789,19.3320789272552,15.265061594521,12.548653732252,15.8190455065733,33.4646822222908,356.218900128532,7.0657256233726,11.0710074532343,12,10
7.69607957852453,3.21352880795713,2.60849616549058,29.975568912361,40.8173386679407,19.3438496646926,15.3757384796691,12.6565654290304,15.5696834408297,33.0618768040116,339.943386832261,7.06108113690754,11.2710074532343,12,10
7.6961721162001,3.21786669444738,2.59572774200484,29.9734088004373,40.8617292297818,19.3441259764115,15.4790671222317,12.7800107376642,14.9898271773249,33.0378755604139,322.496506148589,7.06933243138781,11.2303883471065,12,10
7.69407087906619,3.24464902544223,2.63377664292182,29.9738271576163,40.7637912895466,19.3484266275315,15.5886490362116,12.8452904793099,14.3822269260636,33.042523973514,261.659121115178,7.12708112646336,10.4563464440491,12,10
7.68653625835957,3.31400735828404,2.86782482121225,29.9643266596404,40.3217023432777,19.3698332978546,15.7213131594403,12.7208242149994,14.2183967238506,32.9369628848932,142.117215694637,7.27855820771777,9.627640548984,12,10
7.67590446208504,3.43085325700573,3.4671256490023,29.930243688599,39.4753734015491,19.409940213385,15.8859912864091,12.254187510438,14.7004243179875,32.5582632066559,59.252605958782,7.53447122920073,9.39745339710104,12,10
7.66750312531743,3.54777141360989,4.45535151395217,29.882107794318,38.4118802079437,19.4529763880927,16.0673443141636,11.4306397724569,15.4312091635392,32.0234199368662,60.0064319939467,7.79025377033947,9.59745339710104,12,10
7.65942448308568,3.62251090916653,5.4187064782011,29.8440348880825,37.357464350387,19.4733175863086,16.2384339361805,10.6486378359625,15.9238047664832,31.600387645361,60.0475560200555,7.9529229731116,9.79745339710104,12,10
7.65421634746788,3.64976259649691,6.02186275023342,29.8073947320968,36.5642226289257,19.4609818290457,16.3806775609279,10.216571185947,16.0177045440614,31.193274801076,59.8186605028923,8.01104963077888,9.99745339710104,12,10
7.65463547797007,3.65269904273134,6.2394184254282,29.7837581475389,36.1214355852903,19.4316954700224,16.4947311909394,10.1412591354997,15.8349207715407,30.9306460837654,122.668284102557,8.01586335830253,10.197453397101,12,10
7.65571800938037,3.65093222585149,6.2627864221115,29.7856607758014,35.9124511519223,19.407492985199,16.5902409148608,10.2319447688279,15.541619638028,30.9517863977937,178.37035026437,8.01056159108832,10.397453397101,12,10
7.65653651170221,3.65373438863956,6.24872796193756,29.7905745264883,35.8101851990187,19.3992824271572,16.6774145718871,10.3415129529232,15.2490393191896,31.0063836276482,200.246174828064,8.01547111154106,10.597453397101,12,10
7.65753088243395,3.6647745188823,6.27102219297171,29.7942894676348,35.731361672621,19.4081834861543,16.7630253938634,10.4063923789154,15.0095150888699,31.0476607514974,195.532098311063,8.03858730720783,10.797453397101,12,10
7.65901382795917,3.68275299392635,6.35873129131886,29.7988022215699,35.6249953058212,19.4290845754936,16.8509675161366,10.4042941025445,14.8226382677844,31.0978024618881,178.966379453854,8.07697747470774,10.6664545733328,12,10
7.65997120581711,3.71508160920151,6.50113103744144,29.8055314557229,35.4399381927477,19.4555644917079,16.944664795072,10.3498364786952,14.7534767501588,31.1725717302548,136.291418822563,8.14694431215925,10.4115271857205,12,10
7.65974891705301,3.76675972009989,6.75586014316804,29.8098752749214,35.105667943629,19.483051130295,17.0480623607861,10.1888046519039,14.902536862877,31.220836388015,71.2125274469105,8.25945410399379,10.3171688633488,12,10
7.65938623959684,3.82313619467284,7.15955354860097,29.8088667417525,34.6327250172401,19.5073109566749,17.1574849908562,9.88850881218514,15.1827093885998,31.2096304639163,58.6426195893458,8.38221795485008,10.5171688633488,12,10
7.66038963669384,3.86649142702759,7.5951497590105,29.8072212120782,34.1778711944846,19.5222176477715,17.2636562358185,9.56233523184574,15.3780165835963,31.1913468008691,58.5054406301016,8.47626764341975,10.7171688633488,12,10
7.66286994622889,3.88189692853129,7.92681018157555,29.8117736530741,33.8364618342296,19.524420183841,17.3564885155143,9.33684605424293,15.3581012125973,31.2419294786013,95.7994635940762,8.50882287953728,10.9171688633488,12,10
7.66587630938047,3.8845001643035,8.04397572068171,29.8230249617799,33.6271335073038,19.5188855380082,17.4362175148626,9.31251279483257,15.179628505105,31.3669440197764,147.210816897523,8.51332557864685,11.1171688633488,12,10
7.66908325419429,3.88700010224755,8.06373937079064,29.8366589077298,33.5402187105482,19.5155052658573,17.5080747527668,9.37247814407198,14.9412544339102,31.5184323081092,171.507465832473,8.51772174006969,10.9809032757448,12,10
7.67173315407681,3.90720124018,8.08270926944869,29.8511980617286,33.4495043280236,19.5211101660615,17.5796136673622,9.4253654833181,14.7999508009409,31.6799784636506,146.841948244468,8.56116921885704,10.6578717234368,12,10
7.67297794570883,3.95934746490638,8.23565764439371,29.8632083183324,33.2157965269369,19.5371326825179,17.6593427411784,9.34395602296848,14.9241730757322,31.8134257592489,71.5035240457873,8.67494796052214,10.4647739813704,12,10
7.67312123959036,4.02557911093923,8.62769880670544,29.8688490637168,32.7831070950859,19.5586456740182,17.7478334812716,9.03164393447298,15.2754619441842,31.8761007079641,58.3238598282337,8.81964664352884,10.6416720004594,12,10
7.67356927972301,4.06815246701699,9.11999360038823,29.869498352519,32.3011157030761,19.5752808527903,17.8337218542834,8.62783988088341,15.5857782152418,31.8833150279892,58.2611369654839,8.91217700680724,10.8416720004594,12,10
7.67527917638937,4.07222454080088,9.43318388881283,29.8715284392244,31.9852519280755,19.5782255252088,17.9044205906594,8.40053796547056,15.6535741159074,31.9058715469377,91.0469452086957,8.92000617702652,11.0416720004594,12,10
7.67779282509973,4.05638849276759,9.4630088147689,29.8792752254943,31.8965810145376,19.5698402453526,17.9591853950005,8.44141177589046,15.5093726167135,31.9919469499363,162.936439444345,8.8841839773544,11.2416720004594,12,10
7.68073949175268,4.03602059480327,9.34689336265484,29.8906610989858,31.9719981896853,19.5612281708759,18.0028929002102,8.61229203234569,15.2527028959189,32.1184566553976,206.782276647007,8.83855634823943,11.4416720004594,12,10
7.68394869953052,4.0202481284996,9.19703925603989,29.9040048073162,32.1198778555971,19.5619207874201,18.0415932792355,8.80585364417033,14.9770006266974,32.2667200812911,219.632376241553,8.80315244916229,11.2150858837977,12,10
7.68656645798863,4.03112930257561,9.08059851501235,29.9185330261591,32.211670677552,19.5747418738619,18.0838244719337,8.96099476422313,14.8531524816923,32.4281447351015,167.182817399554,8.82646319515572,10.8363403532783,12,10
7.68744645936068,4.07908260792436,9.16096633154348,29.9303803472621,32.0725392987606,19.5976380969481,18.1392496962773,8.92285814039019,15.0541789445191,32.559781636246,71.5784978850589,8.93129521072983,10.6658335393823,12,10
7.6868072681512,4.13801407041898,9.51318769738805,29.9343623316735,31.7104722296168,19.6238961229079,18.2048563997955,8.62606199888921,15.4600982567671,32.604025907483,57.998493243732,9.06016226363229,10.8658335393823,12,10
7.68602726152272,4.16506180592525,9.94174477446694,29.9314700413831,31.3138866450251,19.6413778334287,18.2669518398953,8.26311162532852,15.7633409787187,32.5718893487015,57.9192710199178,9.11877248481278,11.0658335393823,12,10
7.68644202089913,4.15091576681598,10.1368824371772,29.9279403270718,31.1302530786264,19.6421995934364,18.3124002522113,8.13006940271816,15.7687933602937,32.5326703007982,123.341525807689,9.08682409251263,11.2658335393823,12,10
7.68783960726429,4.12056343884464,10.0349458332931,29.9298172448236,31.1765952632439,19.6321636766531,18.3434389437231,8.27745441891818,15.5583804430349,32.5535249424844,200.86971102433,9.0193947960226,11.4658335393823,12,10
7.68765148238436,4.0898936487242,9.81532929647881,29.9361412053198,31.3624605720918,19.6242348144547,18.3653721497691,8.52810964724432,15.2461645528583,32.6237911702195,239.328610809034,8.95142974299458,11.6658335393823,12,10
7.68210227216921,4.06858144541615,9.59215904630008,29.935290006498,31.5563002380449,19.6280638033498,18.3851000960887,8.773213103469,14.9466390657015,32.6143334055334,240.070185453024,8.90413578822767,11.3527672580093,12,10
7.67837726870672,4.08068035363082,9.43632691091454,29.9101747297413,31.666257031388,19.6455606832167,18.4118389698201,8.94877318517416,14.849697878582,32.3352747749033,164.727794457308,8.93036399612162,10.9327716945241,12,10
7.67734711097835,4.13438052328219,9.52486878741314,29.8933080044046,31.5210234606383,19.6732579422763,18.4556166792738,8.88697018240697,15.1249292305138,32.1478667156069,57.4997773146249,9.04799711821192,10.796460011299,12,10
7.67702128956276,4.19217215484931,9.91545627033605,29.8886423880548,31.1444057486279,19.7023346818528,18.5105509220901,8.54016040893771,15.5806484198422,32.0960265339428,57.8016754661362,9.17446409614579,10.996460011299,12,10
7.67555062641482,4.21177069343404,10.3315047390014,29.8871666346546,30.7601747731795,19.7193029605791,18.5603504445565,8.17904618308864,15.8783693414344,32.0796292739405,57.7217633572379,9.21682605390311,11.196460011299,12,10
7.67322077088476,4.19035094220132,10.471603902458,29.8805049261327,30.6007919521945,19.7174975067709,18.5931680050362,8.08874654209853,15.856553051442,32.0056102903638,135.189988349898,9.16906337221838,11.396460011299,12,10
7.67079332421452,4.15419710347236,10.3184605579759,29.8699493402691,30.6863734011314,19.705025969385,18.6111158179824,8.27470744706034,15.6047012109939,31.88832600299,213.657945121535,9.08908974741714,11.596460011299,12,10
7.66851829084777,4.12143688666348,10.0586147684676,29.8589490439305,30.9080595706001,19.696818000575,18.6214283142301,8.55250104951477,15.274192254327,31.7661004881169,244.6613182958,9.01673424827772,11.796460011299,12,10
7.66624848931348,4.09991854819001,9.82166640395047,29.8486370497865,31.1499283442834,19.7022558441608,18.6309417465167,8.79976191027964,14.9788588393698,31.6515227754053,237.278016362027,8.96916901108319,11.5411043683348,12,10
7.66520672801072,4.10913967421311,9.66524572391234,29.8383464747706,31.2917249340161,19.7220298927763,18.6481422029363,8.96569602260433,14.8821159754158,31.5371830530062,165.00683448436,8.98920150660101,11.1210808582389,12,10
7.66605226707131,4.15768726995246,9.73235223174913,29.833622684802,31.1856724926756,19.7514784166922,18.6821055792918,8.91578997118717,15.133309544606,31.4846964978004,57.2389338049257,9.09559952960528,10.9826831192319,12,10
7.66754976683201,4.21416407308393,10.0837743957408,29.8374567563881,30.8513276599955,19.7820289700014,18.7283704195871,8.59833118355101,15.5763152954549,31.5272972932007,57.526163189151,9.21926663156995,11.1826831192319,12,10
