Pdis,Psuc,T0,Tc,Tdis,Tret,Tsuc,Tsh,Tsup,CondFan,CprPower,Density,Cpr,Tset,Tamb
9.48461715705673,2.73068621281817,-1.91047100753372,37.4356361507526,60.0758790301329,18.096028387886,11.6775340496414,13.5880145105174,7.00193616019482,100,4214.66011115929,6.03563637949633,88.7062875232027,7,10
9.48461631585591,2.7306850395781,-1.91048271474682,37.4356329067813,60.0758877931108,18.0960133774529,9.67752461163991,13.5880167643882,7.00192363999207,100,4214.66047622874,6.05784280577176,88.7062946123695,7,10
9.48461547302677,2.73068387011123,-1.91049438436875,37.4356296564971,60.0758964920454,18.0959983914774,9.67751518896188,11.5880189960087,7.00191114537483,100,4214.66083185939,6.05784030327107,88.7063015448215,7,10
9.48460650482888,2.73048548479951,-1.91050601646435,37.4356263999211,60.0811712742489,18.095985482188,9.67827457963563,11.5880212054262,7.00291064150503,100,4215.2192515388,6.05738950517651,88.7063083209107,7,10
9.48452118332737,2.72922107154717,-1.91247931041704,37.4355917480236,60.1163425138145,18.0959860361665,9.68419100913746,11.5907538900527,7.01006083032291,100,4216.55534263876,6.05450437981337,88.708359608221,7,10
9.48415491974219,2.72651389817988,-1.92505874101369,37.4352620761103,60.1914529833349,18.0959821233054,9.7042513435195,11.6092497501512,7.02781520594465,100,4212.34113414795,6.04824517130936,88.7228583297375,7,10
9.48337019206905,2.72229804065662,-1.95200705580839,37.4338468528338,60.2989145428476,18.0957389299348,9.74266905891562,11.6562583993279,7.0521541212085,100,4204.28152452502,6.03841908469401,88.7589401528797,7,10
9.48208828464143,2.71663930744282,-1.99401452640467,37.4308145681456,60.4293351733565,18.0948013462905,9.79888418848407,11.7366835853203,7.07611282377627,100,4194.73704843086,6.02518096416365,88.8087506007965,7,10
9.48026286691167,2.7098142237285,-2.0504779320425,37.4258607142407,60.5774628715938,18.0929290794362,9.86950023289592,11.8493621205266,7.09485035371637,100,4184.05959188313,6.00918724287921,88.8584064055764,7,10
9.47785171635872,2.70235024638427,-2.11870004130139,37.4188056297695,60.7333765216042,18.0904072190432,9.95125256332807,11.9882002741973,7.10744069904126,100,4171.95212152435,5.99165179675167,88.8981087801191,7,10
9.47489586252236,2.69470232567844,-2.19346020386996,37.409485174338,60.8896398658659,18.0877046296702,10.0407617431178,12.144712767198,7.11591002669763,100,4158.24283257804,5.97362721765912,88.9258231953798,7,10
9.47142794382876,2.68729041758695,-2.27022807254326,37.3980567048137,61.0389754648774,18.0853666261095,10.1359850035238,12.3109898156611,7.12289310487313,100,4143.27020520394,5.95607233686438,88.9454872173313,7,10
9.46750323071301,2.68039815936738,-2.34478735980582,37.3846449825261,61.1757551706059,18.0837000887627,10.2349585766617,12.4807723633297,7.12996738233801,100,4127.88205207014,5.93964048934884,88.9623609720915,7,10
9.46325132884565,2.67408002046865,-2.41426169649236,37.3694622198268,61.2984031850482,18.0825554208065,10.3352010359117,12.649220273154,7.13680476981563,100,4113.08226919573,5.92447958302393,88.9796395487983,7,10
9.45880459317049,2.6683326196597,-2.47807000154353,37.3530083932912,61.4070273638405,18.0816812876079,10.4345638774905,12.8132710374552,7.14231847646141,100,4099.40718538082,5.91060471183498,88.9966515923993,7,10
9.45424801537347,2.66349517239552,-2.53621535440146,37.3357946688396,61.4955608883971,18.0810817542421,10.5297918714401,12.9707792318919,7.1454854249543,100,4087.17500491522,5.89880519733728,89.0111364956939,7,10
9.44972184023512,2.65930440116604,-2.58522978621829,37.3181494319401,61.5697938111109,18.0805583694793,10.6206267786172,13.1150216576584,7.14641410782752,100,4076.13017373613,5.88849650561442,89.0209121687802,7,10
9.44536390179364,2.65612855193108,-2.62774743947608,37.3006156066558,61.6243021150007,18.0802620257815,10.7034427759817,13.2483742180933,7.14530938297128,100,4066.64555666555,5.8805359391895,89.0261062435045,7,10
9.44122951877352,2.65372534114452,-2.66000258985036,37.2837275500765,61.663774236318,18.0801583192414,10.7793231691583,13.3634453658321,7.1430034269664,100,4058.22219031269,5.87437134377935,89.0270544810282,7,10
9.43737599816889,2.65208675236883,-2.68443030262233,37.267700416176,61.6885256624634,18.0802720901321,10.84780627547,13.4637534717806,7.13977797468613,100,4050.88636468489,5.8699888091458,89.0254203998457,7,10
9.43369218341104,2.6509887109478,-2.70109571171184,37.2527573138631,61.7027053321086,18.080569886344,10.9118818745386,13.5489019871819,7.13568297067906,100,4043.80563071068,5.86685694577672,89.0217516942196,7,10
9.43039411370919,2.65070001354844,-2.71226788184003,37.2384680100631,61.7015591370812,18.0811166834616,10.9671250713683,13.6241497563786,7.13075530642766,100,4038.68722185225,5.86562051482697,89.016122938093,7,10
9.42745739839812,2.65102891546864,-2.71520586493864,37.2256714343855,61.6893726039286,18.0818442308628,11.0149318142951,13.6823309363069,7.12580699505298,100,4034.53478480193,5.86583751036897,89.0085858552226,7,10
9.42497221166241,2.65192442409368,-2.71185875258902,37.214274092713,61.6671664650507,18.0827084596911,11.0542303733938,13.7267905668841,7.12109618983243,100,4031.84659038398,5.86740571757371,89.0008336130284,7,10
9.42288045553362,2.65324375172134,-2.70274711781803,37.2046270432577,61.6376431115087,18.0836713167993,11.0865334798117,13.7569774912118,7.11663900768866,100,4030.06052660753,5.8699912020089,88.9934188942654,7,10
9.42125288628105,2.65490384414668,-2.68932752581117,37.1965057406023,61.6023260658314,18.0846517768111,11.11097281619,13.7758610056229,7.11228531898536,100,4029.67880925534,5.87341861204089,88.9863901393302,7,10
9.42018000576545,2.65677355467381,-2.67244914210028,37.1901857203545,61.5641877653662,18.0855349310575,11.1265235857985,13.7834219582903,7.10808778279034,100,4030.62875921904,5.8774075019444,88.9794427305477,7,10
9.41930989014538,2.65881765699394,-2.65344928691155,37.1860191657368,61.5233524399343,18.0864880115225,11.1386962754183,13.77997287271,7.10407201495025,100,4031.47215713112,5.88182028871151,88.972696941563,7,10
9.41883961511796,2.66097205782543,-2.63268907266644,37.1826397913229,61.4810305898801,18.0874182190646,11.1445965954219,13.7713853480847,7.1002669100871,100,4033.55027802191,5.88654580090373,88.9662166223971,7,10
9.41867629145708,2.66316958075295,-2.61082196967942,37.1808132291357,61.4388900109091,18.0883175085376,11.1457647320663,13.7554185651013,7.09686345044787,100,4036.08442471428,5.89141822865255,88.9600726999423,7,10
9.41883301939623,2.66533066528016,-2.58853124124778,37.1801788591628,61.3987088561306,18.0891520820048,11.1421809554294,13.7342959733141,7.09401621987126,100,4039.19520427801,5.8962610519894,88.9546811607827,7,10
9.41931420853179,2.66733614553317,-2.5666239585816,37.1807876106695,61.3625052129452,18.0898663232591,11.1339963939745,13.708804914011,7.09175231122941,100,4042.69312393141,5.90080784862022,88.9503848632971,7,10
9.41997410489418,2.66921541440306,-2.54630631442205,37.1826565637468,61.3294384513552,18.0905347118849,11.1233631253298,13.6803027083966,7.08999037596448,100,4046.21315422258,5.90510075315408,88.9472580972533,7,10
9.42077583839545,2.67094006590667,-2.52727801493262,37.1852195045166,61.2999048511215,18.0911569927624,11.1108985846688,13.6506411402624,7.08871522531098,100,4049.77438713742,5.90906996042201,88.9451436937655,7,10
9.42168308616353,2.67248655289519,-2.50982436332498,37.1883331385886,61.2742705386191,18.091726823265,11.097189720103,13.6207229479938,7.08789277225628,100,4053.31481818527,5.91265676557708,88.9440227028986,7,10
9.4226615795646,2.67383817163055,-2.49418114421309,37.1918563108184,61.2527847462262,18.0922390376152,11.0827846889773,13.5913708643161,7.08748296972209,100,4056.75940132066,5.91581807176187,88.9438349105667,7,10
9.42367966620997,2.67498534182449,-2.48051479658375,37.1956558702078,61.2355622927761,18.0926918656712,11.0681834395698,13.5632994855611,7.08744405782005,100,4060.03789252875,5.91852712224798,88.9445061317723,7,10
9.42470873893374,2.67592487561362,-2.4689198268303,37.1996088585424,61.2225952176283,18.0930868289115,11.0538305171083,13.5371032664001,7.08773439185205,100,4063.09169212648,5.92077196113143,88.9459572724246,7,10
9.42572353307785,2.67665904302883,-2.45942638836317,37.2036041773891,61.2137708532298,18.093427887673,11.040110121121,13.5132569054715,7.08831280990006,100,4065.87562801568,5.92255341660955,88.9481083032949,7,10
9.42670230671044,2.67719465979092,-2.45200984561689,37.2075437397079,61.2088900392071,18.0937205351814,11.0273431898972,13.4921199667379,7.08913833535433,100,4068.35791796863,5.92388311074361,88.9508791297749,7,10
9.42762691242505,2.6775422501584,-2.44660004672699,37.2113431640693,61.2076843007591,18.0939710913455,11.0157864680259,13.4739432366242,7.09017000801134,100,4070.51932819511,5.92478161309249,88.9541890221598,7,10
9.42848277134587,2.67771529604645,-2.44308978538822,37.214932046222,61.2098316930591,18.0941862395541,11.0056334865975,13.4588762534141,7.0913671731135,100,4072.3518649536,5.92527676382283,88.9579562901739,7,10
9.42925876375637,2.67772955854522,-2.44134235275436,37.2182538503284,61.2149713242234,18.0943727535603,10.9970172663079,13.4469758393519,7.09269017182078,100,4073.85725877366,5.92540213757248,88.9620989141988,7,10
9.42994705151705,2.67760245482182,-2.44119833266871,37.2212654767138,61.2227166421208,18.0945373363886,10.9900144524908,13.4382155989766,7.09410118581599,100,4075.04541753556,5.92519561357082,88.9665360291185,7,10
9.43054284718531,2.67735247977286,-2.44248182351095,37.2239365656595,61.2326675406359,18.0946865078628,10.9846505394306,13.4324962760018,7.09556500413061,100,4075.93294120472,5.92469803234996,88.9711897468688,7,10
9.43104414158678,2.6769986713297,-2.4450062035927,37.2262485955529,61.2444212621379,18.0948265062729,10.9809058459481,13.4296567430233,7.09704958487225,100,4076.54172574476,5.9239519405729,88.975986829698,7,10
9.43145140030137,2.67656012404678,-2.44857945881949,37.2281938212253,61.2575820218668,18.0949631947543,10.9787219354606,13.4294853047676,7.09852640017812,100,4076.89765838594,5.92300043791006,88.9808599431409,7,10
9.43176724528265,2.67605555729547,-2.45300903150616,37.2297740931301,61.2717693133226,18.0951019766874,10.9780082201538,13.4317309669667,7.09997061380886,100,4077.02940572138,5.92188614313013,88.9857484610749,7,10
9.43199612460871,2.67550294232293,-2.45810613016459,37.2309996202156,61.2866248272936,18.0952477274363,10.9786485317581,13.4361143503184,7.1013611522086,100,4076.96730254827,5.9206502914751,88.9905989249014,7,10
9.43214398165311,2.6749191897747,-2.46368945903964,37.2318876879354,61.3018179983397,18.0954047466025,10.9805074756788,13.4423379907977,7.1026807117716,100,4076.74235778838,5.9193319690445,88.995365283885,7,10
9.43221793119322,2.67431989697677,-2.46958835142351,37.2324613749598,61.3170502258175,18.0955767307021,10.9834364196739,13.4500958271023,7.1039157136388,100,4076.38539142138,5.91796748435888,89.0000090058457,7,10
9.43222594902639,2.67371915287028,-2.47564531276322,37.2327482974889,61.3320578435294,18.0957667632654,10.9872789996834,13.4590817324371,7.10505620080761,100,4075.92630993535,5.91658987375572,89.0044990805279,7,10
9.43217658057373,2.6731293980626,-2.48171799284086,37.2327794063973,61.3466139250824,18.0959773187681,10.991876056511,13.4689969925243,7.10609566950171,100,4075.39351899991,5.91522853592854,89.0088119022454,7,10
9.43207867274527,2.67256133696668,-2.48768061010321,37.2325878582365,61.3605290277799,18.0962102776573,10.9970699483786,13.4795566666142,7.10703083326302,100,4074.81346543016,5.91390898944732,89.0129310117803,7,10
9.43194113231476,2.672023899015,-2.49342485596139,37.2322079764825,61.3736509801763,18.0964669509301,11.0027082147495,13.49049480434,7.10786132538681,100,4074.21029497798,5.91265274677132,89.0168466910897,7,10
9.43177271299392,2.67152424502504,-2.49886030678368,37.231674315483,61.3858638277048,18.0967481134074,11.0086465910196,13.5015685215332,7.10858935545355,100,4073.60561316535,5.91147729596489,89.0205554196918,7,10
9.43158183250125,2.67106781421707,-2.50391438074962,37.2310208355046,61.3970860565481,18.097054045051,11.0147513943951,13.5125609717692,7.10921933701172,100,4073.01833603928,5.91039617981192,89.024059223707,7,10
9.43137642010362,2.67065840659019,-2.50853188297322,37.2302801938531,61.4072682211058,18.0973845792928,11.0209013161921,13.5232832773684,7.1097575030908,100,4072.46461958525,5.90941916009917,89.0273649520182,7,10
9.4311637943797,2.67029829479237,-2.51267419083649,37.2294831539098,61.4163901023028,18.0977391568759,11.0269886659411,13.5335755070286,7.11021152360973,100,4071.95785774489,5.90855245346628,89.0304835139868,7,10
9.43095057030564,2.66998835933046,-2.51631813777954,37.2286581111341,61.4244575227473,18.0981168833547,11.0329201193204,13.5433068037206,7.11059013527449,100,4071.50873967042,5.90779902451802,89.0334291083067,7,10
9.43074259421021,2.669728240999,-2.51945465722474,37.2278307325814,61.4314989380529,18.0985165882879,11.0386170255893,13.5523747765452,7.11090279194292,100,4071.12535718391,5.90715892194035,89.0362184657734,7,10
9.43054490467149,2.66951650447111,-2.52208724843581,37.227023704358,61.4375619175829,18.0989368842631,11.0440153312477,13.5607042740251,7.11115934226382,100,4070.81335418689,5.90662964351038,89.0388701236377,7,10
9.43036171705746,2.66935080764194,-2.52423032581231,37.2262565795927,61.4427096131836,18.0993762241441,11.049065176947,13.5682456570601,7.11136973884078,100,4070.5761093616,5.9062065173376,89.0414037471058,7,10
9.43019642913539,2.66922807161631,-2.52590750683095,37.2255457180731,61.4470173061073,18.0998329551986,11.0537302229561,13.574972683778,7.11154378263819,100,4070.41494451115,5.90588308737592,89.0438395083375,7,10
9.43005164499171,2.66914464696814,-2.52714989095091,37.2249043076048,61.4505691058046,18.1003053690744,11.0579867559967,13.580880113907,7.11169090511044,100,4070.32935127489,5.90565149291694,89.0461975323397,7,10
9.42992921440878,2.66909647252871,-2.52799437442121,37.2243424564393,61.4534548625485,18.100791746843,11.0618226272843,13.5859811304179,7.11181998869375,100,4070.31722939272,5.90550283321472,89.0484974166044,7,10
9.4298302848314,2.66907922364747,-2.52848203954295,37.2238673457286,61.4557673415817,18.1012903985579,11.065236067898,13.5903046668273,7.11193922527343,100,4070.37513041297,5.90542750996243,89.0507578274003,7,10
9.42975536311622,2.66908844754512,-2.52865664992504,37.2234834309023,61.4575996940009,18.1017996969941,11.0682344236547,13.593892717823,7.11205601105365,100,4070.49850126807,5.90541554188914,89.0529961733667,7,10
9.42970438437094,2.66911968407648,-2.52856327632378,37.2231926810871,61.4590432467867,18.1023181054406,11.0708328475748,13.5967976999785,7.11217687530149,100,4070.6819226616,5.90545684734131,89.0552283544026,7,10
9.4296767853651,2.669168570824,-2.52824707047586,37.2229948461201,61.4601856236584,18.1028441996019,11.0730529838073,13.5990799180506,7.11230743989171,100,4070.91933783536,5.9055414920975,89.0574685816402,7,10
9.42967158019774,2.66923093201798,-2.52775219809899,37.2228877413756,61.4611091983817,18.1033766838268,11.0749216727174,13.6008051819063,7.11245240619564,100,4071.20426788046,5.90565990098902,89.0597292629523,7,10
9.42968743615585,2.66930285128599,-2.52712093629691,37.2228675414142,61.4618898734624,18.1039144020243,11.0764697026923,13.6020426090143,7.11261556564443,100,4071.53001038878,5.90580303306412,89.0620209474442,7,10
9.42972274795246,2.66938072863881,-2.52639293538533,37.222929074422,61.4625961701317,18.1044563437205,11.0777306300211,13.6028626380777,7.1127998304155,100,4071.88981899821,5.90596252097889,89.0643523217495,7,10
9.4297757088051,2.66946132246146,-2.52560464097365,37.2230661103939,61.4632886099287,18.1050016457846,11.0787396843833,13.6033352709948,7.1130072805193,100,4072.27706192739,5.90613077613699,89.0667302510518,7,10
9.42984437709453,2.66954177752952,-2.52478886843636,37.2232716370763,61.4640193635911,18.1055495903887,11.0795327734316,13.6035285528196,7.11323922398032,100,4072.68535842651,5.90630106170326,89.0691598572351,7,10
9.42992673760601,2.66961964028616,-2.52397451932023,37.2235381187638,61.4648321401378,18.1060995997836,11.0801455964314,13.6035072927518,7.11349626674638,100,4073.10869253897,5.90646753612954,89.0716446273452,7,10
9.43002075662181,2.66969286273619,-2.52318642705205,37.2238577340668,61.4657622866664,18.1066512284641,11.0806128732202,13.6033320234834,7.11377838951114,100,4073.54150435223,5.90662527013913,89.0741865453012,7,10
9.43012443036646,2.66975979640188,-2.52244531808083,37.2242225898051,61.466837068964,18.1072041532817,11.0809676916769,13.603058191301,7.11408502862503,100,4073.97875925189,5.90677024034469,89.0767862409002,7,10
9.4302358265365,2.66981917782682,-2.52176787371855,37.2246249090878,61.4680761021751,18.107758162028,11.0812409738461,13.6027355653954,7.11441515872474,100,4074.41599627589,5.90689930279986,89.0794431500601,7,10
9.43035311883794,2.66987010707844,-2.52116687753448,37.2250571925331,61.4694919022527,18.1083131409686,11.081461058195,13.6024078513806,7.11476737503779,100,4074.8493570035,5.9070101497334,89.0821556811626,7,10
9.4304746146346,2.6699120206951,-2.52065143355048,37.2255123523344,61.4710905292006,18.1088690617705,11.0816533932174,13.6021124917455,7.11513997351665,100,4075.27559672,5.90710125273036,89.0849213830218,7,10
9.43059877595382,2.66994466042036,-2.52022724055382,37.2259838195693,61.472872295688,18.1094259682055,11.0818403356047,13.6018806337712,7.11553102735445,100,4075.69207981318,5.90717179541563,89.0877371103851,7,10
9.43072423422252,2.66996803900254,-2.51989690891207,37.2264656257145,61.4748325160433,18.109983962974,11.0820410446519,13.6017372445168,7.11593845864314,100,4076.09676151828,5.90722159857004,89.0905991837063,7,10
9.43084979920258,2.66998240422207,-2.51966030695252,37.2269524598157,61.4769622732593,18.110543194926,11.0822714633447,13.6017013516044,7.11636010422416,100,4076.48815818746,5.90725104036578,89.0935035403557,7,10
9.4309744626676,2.66998820219134,-2.51951492514377,37.227439703136,61.4792491842787,18.1111038469261,11.0825443757142,13.6017863884885,7.11679377503697,100,4076.86530825091,5.90726097415602,89.0964458750425,7,10
9.4310973974161,2.66998604085827,-2.51945624752977,37.2279234433925,61.4816781461139,18.1116661245449,11.0828695295597,13.602000623244,7.11723730847604,100,4077.22772603025,5.90725264600644,89.0994217677592,7,10
9.43121795224522,2.66997665451102,-2.51947812101605,37.2284004708895,61.4842320483866,18.1122302457265,11.0832538134407,13.6023476505758,7.11768861348537,100,4077.57535039808,5.90722761386235,89.1024267979982,7,10
9.4313356435221,2.66996086995958,-2.51957311446347,37.2288682589784,61.4868924402676,18.1127964315363,11.0837014769495,13.6028269279042,7.11814570830654,100,4077.90849019134,5.9071876699727,89.1054566444557,7,10
9.43145014398548,2.66993957494431,-2.51973286078101,37.2293249313144,61.4896401424578,18.113364898058,11.0842143836318,13.6034343377305,7.11860675096563,100,4078.22776809289,5.90713476791018,89.1085071698411,7,10
9.43156126939259,2.66991368920371,-2.5199483764705,37.2297692183697,61.4924557972784,18.1139358494685,11.0847922864944,13.6041627601023,7.11907006271542,100,4078.53406449085,5.90707095525772,89.111574490783,7,10
9.43166896359573,2.66988413851704,-2.5202103542702,37.2302004055902,61.4953203522023,18.1145094723045,11.0854331167827,13.6050026407646,7.11953414479711,100,4078.82846266077,5.90699831276457,89.1146550331061,7,10
9.43177328259423,2.66985183193379,-2.52050942571566,37.2306182754626,61.4982154742608,18.1150859308896,11.0861332775871,13.6059425424984,7.11999768897527,100,4079.11219636835,5.90691890053583,89.1177455730888,7,10
9.43187437806044,2.6698176423032,-2.52083639148026,37.2310230456126,61.5011238946678,18.1156653638826,11.0868879348076,13.6069696690673,7.12045958237957,100,4079.3866008061,5.90683471158768,89.1208432655098,7,10
