Pdis,Psuc,T0,Tc,Tdis,Tret,Tsuc,Tsh,Tsup,CondFan,CprPower,Density,Cpr,Tset,Tamb
7.99169255251836,3.42269800635642,4.36834516760712,31.2895958632702,38.4225152016111,12.6942069377466,9.7125196629342,5.37972991555739,6.98159758853353,47.662176258558,773.972441702072,7.60228905091278,22.6143025840373,7,10
7.98721605721448,3.43985861055691,4.3872228171964,31.2909700163852,38.2617387582508,12.6940527299724,9.67834071680471,5.3252968457378,6.99816176082965,47.6774446265021,668.565383319914,7.64113160738287,18.095416828901,7,10
7.97841609187687,3.48010379110415,4.53043795041111,31.2712937318011,37.8391734821791,12.6939801861504,9.65017850238354,5.1479027663936,7.09009914660163,47.4588192422345,544.161222664972,7.73151044560444,18.1224073772099,7,10
7.96906541139528,3.51361093097896,4.86417279468833,31.2325895843839,37.3484935862707,12.693671035478,9.60811197885289,4.78600570769521,7.21872545709965,47.0287731598211,522.824243956335,7.807044466358,18.2737068505696,7,10
7.95965847738684,3.54025867690482,5.13978458181043,31.1914280653846,36.8850333471267,12.6910334111437,9.53432419193388,4.46832739704246,7.33082475305525,46.5714229487181,533.519478177428,7.86771879219027,18.4883721047934,7,10
7.95025725097255,3.56565067158312,5.35754157507699,31.1499822411071,36.4028189335614,12.6848302320404,9.41208011770681,4.17678261685688,7.45281803982033,46.1109137900792,548.055543233522,7.92631825453951,18.6807835492701,7,10
7.94137489212987,3.58402990362862,5.56387262517984,31.1085247323534,35.9161027891644,12.6763470284417,9.22327262555575,3.84820749252697,7.56634267285324,45.6502748039264,586.160164473706,7.9702368814773,18.8961675534944,7,10
7.9335920923073,3.59443705021373,5.71251863422276,31.0693214272129,35.3677561140911,12.6668254150376,9.00430704437213,3.51075399133299,7.64927315595611,45.2146825245879,631.926129364351,7.99678334931621,19.1052679553889,7,10
7.92727061133624,3.5981781530844,5.7964301644846,31.0349440268177,34.7948129456955,12.6570696261523,8.78542415658325,3.20787687988752,7.6941333326231,44.8327114090855,716.83780040284,8.00841527291507,19.269667344008,7,10
7.92251838372321,3.59694806419748,5.82654878491303,31.0070027391452,34.2743184627578,12.6482828389624,8.56498095666348,2.95887537167022,7.7065308542131,44.5222526571683,815.329191770574,8.00893686275181,19.37317670709,7,10
7.91927503638134,3.59235828985367,5.81664831294739,30.9859865964766,33.791284089554,12.641683288741,8.34799218182451,2.74833264371608,7.69654993538398,44.2887399608512,913.790484239377,8.00187344492642,19.4215902908458,7,10
7.9174045066179,3.5857795828771,5.77968425095025,30.9716378454744,33.4015851652041,12.6379705455527,8.14065526384059,2.56830793087425,7.67380779584278,44.1293093941599,1000.79297395133,7.99019910447753,19.4296004995509,7,10
7.91667482453773,3.57812100393828,5.72663910812236,30.9633605063234,33.1203696399253,12.6368999752214,7.94634893189487,2.41401615571823,7.64593561211746,44.0373389591489,1073.25680557474,7.9758992347782,19.4125800342943,7,10
7.91721965445547,3.57014436737325,5.66479288942259,30.960131168653,32.9523861060288,12.6379549180285,7.76767642474891,2.28155604247229,7.61693938004146,44.0014574294783,1129.06008384811,7.96064375337397,19.3836057465907,7,10
7.91877862232599,3.56223981351999,5.6002704226546,30.9625424314185,32.8963747302501,12.6404917217812,7.60550805927977,2.16740600209431,7.58904445000354,44.0282492379835,1167.39635211594,7.94529627633428,19.3499215654047,7,10
7.92083865556645,3.5546184986877,5.53622209401334,30.9694412916688,32.9442578662449,12.6438593760438,7.45978883609638,2.06928596526643,7.56292714820574,44.1049032407648,1188.33051325523,7.93033322262466,19.3158510218134,7,10
7.92313765401482,3.54742870323085,5.47436568432994,30.9785559364969,33.0896516872743,12.6475404818596,7.33071630431817,1.98542315176644,7.53843108149283,44.2061770721877,1191.99574292374,7.91608647151789,19.2829603406288,7,10
7.9255129472534,3.54060935435623,5.41591846293289,30.9887257805804,33.3181689736032,12.6512765175307,7.2171365949294,1.91479784138528,7.51572005465511,44.3191753397817,1181.22273944536,7.90243758850584,19.2512434645104,7,10
7.92784905293855,3.53413160208782,5.36039882316391,30.9992307905513,33.6187410677903,12.6549676596402,7.11820823424785,1.85673777176549,7.49482761671209,44.4358976727926,1157.94720713261,7.88933564138931,19.2212724062317,7,10
7.92997575222704,3.5280818264064,5.30758442546318,31.0095601789209,33.9756087456695,12.6584500044639,7.03480108218059,1.81062380878467,7.47508005173449,44.5506686546771,1122.83140829997,7.87696337757988,19.1933511506963,7,10
7.93170484179538,3.52246523440301,5.25819243772469,31.0189616592302,34.3503767565616,12.6616894402597,6.96752614961832,1.77660864445591,7.45648694291344,44.6551295470019,1081.78039559226,7.8653249413573,19.1663763787181,7,10
7.93291833823829,3.51720182353554,5.21227900060967,31.0266040318735,34.7722175526581,12.664697405448,6.9171919142666,1.75524714900865,7.43904068340845,44.740044798595,1029.09683650465,7.85422996402474,19.1405219541168,7,10
7.93358743114693,3.51230668844804,5.16920177864961,31.0319667950429,35.2364527006201,12.6674994652016,6.88425217483376,1.74799013561699,7.42270179692298,44.7996310560326,968.684218550894,7.84370694205914,19.1159133417103,7,10
7.93370113373638,3.50773952501189,5.12909430852721,31.0349234304084,35.7319438535563,12.6701152612847,6.86717484414032,1.75515786630655,7.40743622906933,44.8324825600928,899.839121832709,7.8336887318029,19.0925986743536,7,10
7.93330740670024,3.50346865722719,5.09163540644312,31.0354258488547,36.1806681805231,12.6725661065905,6.90148094332363,1.7755394376972,7.39394940628898,44.8380649872743,811.52429697203,7.82358755400439,19.0706221972678,7,10
7.93253457979071,3.51744693323972,5.05657285372592,31.0336860612809,36.4162692292502,12.6750011552341,7.03936743102054,1.84490808959771,7.4967386285706,44.8187340142327,699.042100893952,7.85299432619326,19.0514842513618,7,10
7.93153138073538,3.53134445128414,5.17120892012156,31.0302709312404,36.469914289381,12.6776232128089,7.24508216754583,1.86815851089898,7.71972477747687,44.7807881248934,646.719998692919,7.88121069726203,19.2637235229031,7,10
7.93080653013459,3.53043157516255,5.28483742804707,31.0258374109443,36.5176668555019,12.6775291215992,7.47946515029173,1.96024473949876,7.92271930309346,44.7315267882705,660.914465094107,7.87572418595077,19.7245777632963,7,10
7.93103758919914,3.51093858066523,5.27738411089507,31.0226337563795,36.6864036069395,12.6707251691915,7.71458017653737,2.20208103939666,8.00703397383757,44.6959306264394,716.243097894672,7.82852717583592,20.1633115196894,7,10
7.93243469090281,3.47800407130157,5.11787729442977,31.0236550023611,37.0032059813146,12.6579922690237,7.93751764784218,2.59670288210759,7.95754930080011,44.7072778040125,772.781792879697,7.7513980923011,20.3747403283793,7,10
7.93456657789577,3.44296783227209,4.84683407157132,31.0298295029527,37.4126850667968,12.6452592677571,8.146240282664,3.09068357627086,7.83598589032744,44.7758833661415,793.048082171701,7.66983409097936,20.3109970543675,7,10
7.936493464851,3.41494712586114,4.55632759844764,31.0392498156357,37.8097838307064,12.6383246386372,8.34637891284359,3.58991268421636,7.73761312704693,44.8805535070632,775.256371872836,7.60418781185656,20.0876849654173,7,10
7.93736815481956,3.39640644713441,4.32235684188095,31.0477626426347,38.1226901826599,12.6393608603738,8.54363665552472,4.02402207096264,7.72200299076309,44.9751404737185,738.775838339751,7.55987337002772,19.9035977202921,7,10
7.93675462010872,3.38218957243055,4.16673370368477,31.0516264373655,38.3467538836833,12.6457791434464,8.73839500875914,4.37690295183995,7.77652883870275,45.0180715262838,713.769846381319,7.52531106932749,19.8904096362616,7,10
7.93495400680991,3.36572547968297,4.04696128764897,31.0489162852811,38.5423847113269,12.6530426932082,8.92759391485703,4.69143372111017,7.83706637805909,44.987958725345,711.038123071729,7.48582371526675,20.0279800423799,7,10
7.9323357200026,3.34290118102852,3.90777367489505,31.0409615694044,38.767893099812,12.6570812053523,9.10626264937173,5.01982023996197,7.84483839909655,44.8995729933826,728.424482541001,7.43228331310942,20.1826077289412,7,10
7.92932055867042,3.31636827891437,3.71395096386783,31.0293921273056,39.0422443254066,12.6573104877517,9.27230254605161,5.3923116855039,7.78538365392586,44.7710236367287,743.904573076211,7.37066272845462,20.2251687079504,7,10
7.92600652887374,3.29207597535646,3.48735556832355,31.0160654531982,39.3262392743154,12.6563933181286,9.42739453714478,5.78494697772805,7.69433652240633,44.6229494799803,741.503402701505,7.31424340610497,20.1183348904417,7,10
7.92215120086283,3.27455085786904,3.27867298358916,31.0014134152938,39.5709250092274,12.6574745053159,9.57456009127969,6.14872155355562,7.61685048582876,44.4601490588197,727.511098887514,7.27309030581486,19.9364513421832,7,10
7.91747473200314,3.26542751417486,3.12738926935867,30.9843623807225,39.7457694286051,12.6620106289623,9.71638388036797,6.44717082192102,7.58045390184202,44.2706931191386,695.624056452804,7.25080273395211,19.7793105050424,7,10
7.91194170860132,3.26156698214842,3.04838703461462,30.9636712894289,39.8297083338041,12.6688697422788,9.85349055427866,6.66799684575335,7.57383063812659,44.0407921047653,668.429465386077,7.24034420501312,19.710046978618,7,10
7.90579043846101,3.2591402525258,3.01490634453381,30.9391784840623,39.8616083954741,12.6755501391262,9.98386586567864,6.83858420974485,7.56558428305442,43.7686498229147,654.585022235282,7.23318242023193,19.7056738252275,7,10
7.8993226038994,3.25706963871193,2.99384482552028,30.9119337797185,39.8733256985906,12.6806342812399,10.1065736298762,6.99002104015835,7.53352500223821,43.4659308857609,647.691705431435,7.22692145450278,19.6972777658936,7,10
7.89268219684162,3.25587755493774,2.97586451166887,30.8832697673672,39.8716640167588,12.6842082862453,10.2216548254179,7.13070911820728,7.47519029055002,43.1474418596357,641.017653283786,7.22272571329125,19.6349891227421,7,10
7.89023211636629,3.25786974265799,2.9655089944676,30.8538225749846,39.8684110808568,12.6872644489261,10.3288854631816,7.25614583095029,7.40553737814349,42.8202508331626,626.166953955314,7.2257413222617,19.5124855768395,7,10
7.8879079019543,3.26421748773932,2.98281330718982,30.8429528720858,39.815098588343,12.6911547326246,10.4291865219614,7.34607215599175,7.34667573218451,42.6994763565088,605.389345721821,7.23856488658716,19.3628917330995,7,10
7.88545330641164,3.2748856209847,3.0378962781129,30.8326392224836,39.7032078136547,12.6963737880808,10.5232526058733,7.39129024384852,7.30940329820908,42.5848802498175,582.120737693287,7.26110424413378,19.2358753324438,7,10
7.88295445808747,3.28995688219074,3.13028488770215,30.8217445267265,39.5331157185468,12.702358710479,10.611536988068,7.39296771817112,7.28901577605416,42.4638280747394,561.788283702144,7.29353456669485,19.1559454828863,7,10
7.88051611948347,3.30667413257923,3.26041301476033,30.8106507941301,39.3390990854644,12.7078207936636,10.6917805452867,7.35112397330766,7.27341139938369,42.3405643792238,553.205940381274,7.32973534867535,19.1129848229476,7,10
7.87818453590673,3.3238355867984,3.40421919647707,30.7998231458631,39.1362028684291,12.7123835262956,10.7637719215912,7.28756134880967,7.25455390356024,42.2202571762562,545.929834754592,7.36703012144725,19.0804224675004,7,10
7.87609058256955,3.34148715451107,3.55126775419996,30.7894671944539,38.9252690117348,12.7156070994262,10.8239267614439,7.21250416739127,7.23132995806299,42.1051910494883,539.963108755305,7.40557171919666,19.0406477567257,7,10
7.8742737525903,3.36002302121397,3.70190979330613,30.7801647348137,38.7033045974607,12.7180952571327,10.8716138465842,7.12201696813776,7.21159897308831,42.0018303868188,533.681864724797,7.44625014617325,18.9912674048647,7,10
7.87275161372899,3.37938389731037,3.85944335156393,30.7720918973664,38.4690954636524,12.720394294719,10.9063563840667,7.01217049502031,7.20108360424683,41.9121321929595,527.658235025668,7.48894248952911,18.9494443243406,7,10
7.87147903077674,3.39930483580747,4.02327884325871,30.7653274009072,38.2254120458678,12.7227744559455,10.930181693746,6.88307754080802,7.20144149655118,41.8369711211906,522.220403120132,7.53303289352147,18.9275758293803,7,10
7.87058596286817,3.41903472265241,4.19110449327894,30.7596711938471,37.975222080086,12.7248728488008,10.9394552086556,6.73907720046708,7.21256481014655,41.774124376079,520.388536577963,7.57690003744459,18.9291754797864,7,10
7.8701244581371,3.43797954006175,4.35657937821725,30.7557013937969,37.7257090908982,12.7263221306563,10.9328296844795,6.58287583043835,7.23031943652097,41.7300154866325,522.20371886243,7.61924165871727,18.9539501899444,7,10
7.87014069324245,3.45569770976563,4.51478274654914,30.7536498139436,37.4827429893293,12.7268902180699,10.908999395942,6.41804693793034,7.25114247268607,41.7072201549293,527.514161615051,7.65909472981068,18.9930435245835,7,10
7.87067001518872,3.47197709111844,4.662139439638,30.7537219872536,37.2509785704249,12.7266093001664,10.8665612880309,6.24685995630404,7.27306692240671,41.708022080596,536.143323298746,7.6960090026093,19.0389024962743,7,10
7.87182026505567,3.48655229810971,4.79702088811797,30.7560750314632,37.0366241018998,12.7257531995593,10.7998648773889,6.06954039991291,7.29553844282219,41.7341670162576,546.628069643678,7.72947569027497,19.0874116350261,7,10
7.87347077956702,3.49969219425669,4.91737218544426,30.7611879339879,36.837211391496,12.7245972289209,10.7135431067821,5.88249269194466,7.31896908662026,41.7909770443095,558.27483847769,7.7600310717411,19.1374646670609,7,10
7.87558999110622,3.51137365900767,5.02554194180664,30.768523549128,36.6523009075676,12.7232754530438,10.6085164066138,5.6880011649755,7.34273384334273,41.8724838792002,570.74845272475,7.78761181654246,19.1900078596253,7,10
7.87802416455729,3.52187471107273,5.12144483230941,30.7779405644386,36.4802400975374,12.7215663720561,10.4936678651435,5.48707157430442,7.36736025656381,41.9771173826512,585.335347706637,7.81271108966818,19.2437960467296,7,10
7.88085694182639,3.53081340436266,5.20744844841948,30.7887548050123,36.3261969209115,12.7197435687114,10.3643561863462,5.28621941672401,7.39295365300427,42.0972756112475,600.751421227201,7.83454261711993,19.3000219145935,7,10
7.88403828524419,3.53988390544001,5.2805017934607,30.8013367477588,36.1843746528368,12.7179836843835,10.2228920431325,5.08385439288548,7.42638376013002,42.2370749750977,610.334734406214,7.85685667933455,19.3589987070667,7,10
7.88752503037828,3.54725896974848,5.35448777439245,30.815462811079,36.0483158578255,12.7164306581161,10.0680796848687,4.86840426874005,7.47161013486527,42.3940312342116,625.249820843413,7.87558924303932,19.4354499414608,7,10
7.8912565322778,3.55141716312372,5.41453757185656,30.8309400190607,35.9387550271055,12.7147729579002,9.90119603123674,4.65354211301212,7.50974483325683,42.5660002117853,646.280539512439,7.88731843800924,19.5382363952613,7,10
7.89521536010922,3.55252792518214,5.44835260212875,30.8474979690734,35.8657352742028,12.7126297005763,9.72528454104764,4.45284342910799,7.53280644523807,42.7499774341489,669.80936250066,7.89237247828328,19.62765774257,7,10
7.89934096013314,3.55109346072549,5.45738035053427,30.8650582030278,35.827725593118,12.7099801714016,9.54469587916458,4.26790419051338,7.54138422728676,42.9450911447538,693.965869513576,7.89180464623044,19.6863571580379,7,10
7.90348788602308,3.54773929699244,5.44572129550784,30.8833511431174,35.8318891642355,12.7077497772125,9.36568805134596,4.09897458365674,7.53515014398448,43.1483460346372,713.173397765078,7.88691750387393,19.7148512373657,7,10
7.90753901163732,3.54307942163506,5.41844521205644,30.9017313997373,35.8728851497892,12.7063990197694,9.19750810190214,3.94724283928952,7.52054080534703,43.3525711081921,727.883128886392,7.87894612512101,19.7116664341986,7,10
7.91140711016032,3.53763166865348,5.38051829110702,30.9196800394954,35.9463445609052,12.7061202147763,9.04674729198922,3.81698981079512,7.50234150259087,43.5520004388378,737.862566940762,7.86895144652971,19.6899864536405,7,10
7.9149603580584,3.53184103472389,5.33613035591168,30.9368113166686,36.0545803445275,12.7070613987739,8.92560065311881,3.71061693607754,7.4825046959503,43.7423479629849,741.22574872254,7.8577516533515,19.6598210218291,7,10
7.9181105597714,3.525847927359,5.28889124031292,30.952542611366,36.1952345775571,12.7089321382184,8.84478490428114,3.63670941280589,7.46223594193117,43.9171401262892,738.749081079606,7.84550636129809,19.6253063701557,7,10
7.9208046130585,3.52461550200889,5.23993789603787,30.9664850568312,36.3490785804949,12.7114332449253,8.81321924401681,3.60484700824327,7.46328630419009,44.0720561870131,711.987867403263,7.84320529411114,19.5890601456982,7,10
7.92305063620728,3.52713361217638,5.22986321198846,30.978405329455,36.4524351773605,12.7143781106521,8.8293447468975,3.58335603202835,7.52660231886983,44.2045036606108,686.016000484504,7.84861085892215,19.5983287831272,7,10
7.9248789728184,3.52772243991664,5.25044508631794,30.9883408892413,36.539739016374,12.7171032882351,8.88354439700805,3.57889966057957,7.61430892511316,44.3148987693481,674.233693327393,7.84914047675584,19.7430364581425,7,10
7.92651163757053,3.52387935039389,5.25525627051917,30.9964271968054,36.641154987038,12.7177327613717,8.96472230604951,3.62828812648888,7.69253974905865,44.4047466311708,677.528214930507,7.83935288519488,19.9439705133315,7,10
7.9280214642167,3.51368493978852,5.22384412070505,31.003646907062,36.7827674145835,12.7154618541102,9.06187300844169,3.74087818534446,7.73098432238777,44.4849656340226,691.702844094514,7.81511727964098,20.1289376119481,7,10
7.92949758943024,3.49861010726775,5.14039110671843,31.0103224265698,36.9654595609753,12.7110368396937,9.1649521216126,3.92148190172327,7.7298730998566,44.5591380729973,709.123160931901,7.77988245944826,20.2306004605127,7,10
7.93079853659096,3.48140128412343,5.01664578862835,31.0168480145947,37.1817384740065,12.7066707113217,9.27066400464031,4.14830633298425,7.69825904279895,44.6316446066078,717.727480417618,7.73985055273542,20.246415351589,7,10
7.93179541086698,3.46538944049637,4.8748830158894,31.0225984257299,37.4011780456842,12.7043528573149,9.37886510936352,4.39578098875091,7.66489827152009,44.6955380636654,714.602226852057,7.70247938016141,20.1936072866338,7,10
7.93243089423007,3.45166393954613,4.74249793245832,31.0270043019769,37.6042295913969,12.704513369189,9.48956630567568,4.6363671769052,7.64670599161644,44.7444922441883,704.062161678203,7.6702034639188,20.1347436807278,7,10
7.93264679374313,3.4399534815311,4.62864275625185,31.0298127246402,37.7812315202777,12.7069957812155,9.60283391216132,4.86092354942383,7.64871510951872,44.7756969404465,692.73644251508,7.64241173598196,20.1079719245535,7,10
7.93246866263642,3.42860766034757,4.53122818044892,31.0307668213808,37.9392948826057,12.7104548362615,9.71690412481109,5.0716057317124,7.65865760411816,44.786298015342,686.308188461796,7.61543687576611,20.1256651598446,7,10
7.93195844059276,3.41632774195672,4.43660426240797,31.029979631074,38.0928647660837,12.7135550823785,9.82918873257404,5.28029986240313,7.65911388458085,44.7775514563779,685.772031225706,7.58641243583902,20.1612876752156,7,10
7.93115787703535,3.40325855291509,4.33391926558551,31.0277248033491,38.24958197094,12.7157179009191,9.93756900221371,5.49526946698853,7.64087206446129,44.7524978149905,686.988810652489,7.55569287661486,20.1757449289741,7,10
7.93006216106916,3.39090583601632,4.22432323559178,31.0241866474732,38.4026167528637,12.7173242611811,10.0407773636305,5.71324576662192,7.60799148178586,44.7131849719249,684.677231897912,7.52665962867259,20.1474735540629,7,10
7.92869076398968,3.3802739140858,4.12043854733304,31.0193436059135,38.5406594289609,12.7192548381571,10.1397780513189,5.92033881629749,7.57132622339878,44.6593733990394,678.027399250751,7.50153997724469,20.0847479131037,7,10
