Pdis,Psuc,T0,Tc,Tdis,Tret,Tsuc,Tsh,Tsup,CondFan,CprPower,Density,Cpr,Tset,Tamb
7.95424468210664,2.6650535430874,-2.56942574184018,31.1261080288998,46.6062153077687,5.16264619092362,3.14436510611438,5.71379072002117,0.00346509475747325,45.8456447655534,1124.23875682205,5.98343276550052,25.7133106002571,0,10
7.95044062536634,2.67830502801721,-2.56943242767119,31.1261129994238,46.4724536912481,5.16266165253779,3.1462849907042,5.71379753378557,0.0159812390232901,45.8456999935979,992.531553086693,6.01331878700484,20.5706900432331,0,10
7.94337356067813,2.710381623518,-2.4353878413055,31.1093337289529,46.0046262007779,5.16276850162188,3.14989660959475,5.5816728320097,0.0941019336401041,45.6592636550327,855.025514259798,6.08567825058455,20.5909940560422,0,10
7.93577933435281,2.73620599066867,-2.11302338685368,31.0781456542796,45.4661537672372,5.16269174225386,3.13853545139824,5.26291999644843,0.19118784076835,45.3127294919953,832.041883299167,6.14410297272122,20.7179873560323,0,10
7.92753803921885,2.75601332876316,-1.85562301792908,31.0446078546003,44.9822486160697,5.16075957166061,3.09790763466947,4.99415846932732,0.262739900741508,44.9400872733362,844.27088395922,6.18928873008406,20.8781816474721,0,10
7.91903644965853,2.77219709318696,-1.65946225320698,31.0081851243587,44.5374652235232,5.15613833083177,3.01985911568636,4.75736988787645,0.307732425799543,44.5353902706523,867.122962203872,6.22673666833049,21.0000524787878,0,10
7.91070740608308,2.79094022703058,-1.49999211988671,30.9705821498312,44.0722135209037,5.15036831953603,2.89373275815529,4.51985123557307,0.379558065525657,44.1175794425684,875.781439895428,6.27054159568002,21.0809904604342,0,10
7.90294116044708,2.80670535876411,-1.31619653769093,30.9337128903312,43.5689954796176,5.14522812528753,2.70403920835724,4.20992929584622,0.485227461618763,43.7079210036795,906.17198330776,6.30838955046528,21.2092180087509,0,10
7.896108138529,2.81707565784919,-1.16233805371485,30.8993085847652,43.0050667910509,5.14053382236085,2.46725877597805,3.86637726207209,0.583356886529941,43.325650941835,945.549861544642,6.33462670791385,21.3992499303046,0,10
7.89053099088948,2.82225562797747,-1.06149253152154,30.8690173986052,42.3814879039592,5.13500011548507,2.22833771962752,3.52875130749959,0.649417803609595,42.9890822067244,1023.9208978275,6.34917233861362,21.5837422081907,0,10
7.88634858100187,2.82302292062106,-1.0112271670543,30.8442789552408,41.794131696498,5.12857950624596,1.98479060322182,3.23956488668182,0.679813332031244,42.7142106137865,1116.9748931718,6.35379940361991,21.7197123276617,0,10
7.88357855234334,2.81965217570581,-1.00378755950027,30.8257184888774,41.2973861417339,5.12251814634504,1.7411215981661,2.98857816272209,0.679947486568096,42.5079832097494,1212.83296423273,6.34906244220011,21.7974812771424,0,10
7.88215367097543,2.81400852162767,-1.03648164386368,30.8134217322842,40.901767083643,5.11811365189021,1.50419214258386,2.77760324202978,0.65832284153521,42.3713525809351,1297.57270717374,6.33909238927898,21.8227733097178,0,10
7.88281980757321,2.80749695771659,-1.09128894858571,30.807095109336,40.6223891050951,5.11596720417799,1.28030725906018,2.59548109116957,0.6253615304866,42.3010567704005,1369.48625982941,6.32699219803898,21.8077859045351,0,10
7.88498813326433,2.80051977442651,-1.15463007732637,30.8100529329033,40.4722614325597,5.11607466599327,1.07375893672719,2.43493733638655,0.588827745650633,42.3339214767029,1423.76103925337,6.31362145638917,21.7696189915559,0,10
7.8877712610578,2.79349817658911,-1.22262620390177,30.8196795731549,40.4474346466607,5.11802072964406,0.885677590282683,2.29638514062896,0.552899752459439,42.4408841461652,1459.44152976292,6.29992193699981,21.7218711258611,0,10
7.89064651884553,2.78683099364637,-1.29118702492542,30.8320328103941,40.5514478296398,5.12113490935781,0.718123903962862,2.1768646152081,0.519049785804782,42.5781423377127,1473.50365717328,6.28677520395889,21.6723348156831,0,10
7.89334280346729,2.78050994653861,-1.35641020874959,30.8447915337235,40.7675723512643,5.12488454732772,0.570353106670552,2.07453411271246,0.488379717644136,42.7199059302615,1468.15244592199,6.27417325115544,21.624094663958,0,10
7.89575646489807,2.77449028334539,-1.4183583360109,30.8567529004037,41.0801323513442,5.12895052163447,0.440982752916625,1.98871144268145,0.460903845162193,42.8528100044856,1447.70428537912,6.26203257740945,21.579620759711,0,10
7.89768499140374,2.76890878294653,-1.47745374596877,30.8674578752593,41.4842708550621,5.13292418249137,0.332010321636858,1.9184364988854,0.435561154961192,42.9717541695481,1411.03142768361,6.25064184349032,21.5393402866007,0,10
7.89904499461696,2.76363330691074,-1.5323360037475,30.8760094296645,41.9598315565349,5.1366411492769,0.244455050275576,1.86434632538436,0.411877183782735,43.0667714407169,1360.07043511838,6.23969087481747,21.5015674027401,0,10
7.899777244205,2.75865872463377,-1.58428756633424,30.882039069265,42.5012112733602,5.14005321273515,0.17991467614371,1.82874261660982,0.389354754194699,43.1337674362775,1300.07839799542,6.22915089069515,21.4656362405875,0,10
7.89986434100964,2.7539698804717,-1.63334604481292,30.8852852095213,43.0861788578201,5.143180811722,0.138505050596962,1.81326072095663,0.367932354424738,43.1698356613475,1230.2351501069,6.21898763600125,21.4307818559994,0,10
7.89929509324049,2.74922406990712,-1.67964906540499,30.8856713038488,43.6872805334793,5.14606356259412,0.127200767043973,1.81815411600195,0.347435755729009,43.1741255983196,1142.59354025585,6.20834314819146,21.3970354765953,0,10
7.8982709565547,2.75585001663833,-1.72657653593973,30.8831478085042,44.0531429387038,5.14881616087217,0.220066984998937,1.8537773029837,0.403760034602215,43.1460867611577,1023.69878286163,6.22230524730111,21.3641912465543,0,10
7.89707991008281,2.76958723573952,-1.66107515653755,30.8786074300959,44.1133037532235,5.15176488126929,0.395420350208838,1.88114214153649,0.652932050699576,43.0956381121765,953.836775891682,6.25143883979032,21.4798218682464,0,10
7.89603128329059,2.76824289782966,-1.52566030677372,30.8733265214453,44.1343710823606,5.15318703464368,0.600072475289551,1.92108065698255,0.905669543845022,43.0369613493926,973.644117220714,6.24599183974496,21.9769097502467,0,10
7.89562117754124,2.74959978807107,-1.5388892654712,30.8686765826933,44.3338398593842,5.14801731451365,0.803951427080392,2.13896174076075,1.01607777538305,42.9852953632589,1034.51217257742,6.20132781301838,22.5016341131621,0,10
7.89608623265287,2.71954130356299,-1.72285908950505,30.8668579193119,44.7294306859613,5.13538278299717,0.996081780232828,2.52681051658544,0.975501986549546,42.9650879923549,1093.21505028886,6.13096220403548,22.7623733798767,0,10
7.89721581363511,2.68823610357908,-2.02151021208465,30.868920256865,45.2397930056348,5.12168590487141,1.17555916964511,3.01759199231748,0.857070067074517,42.988002854055,1111.79750584265,6.05797539509047,22.7216630914921,0,10
7.89835060604353,2.66262864394187,-2.33526551616887,30.8739291262422,45.7474041379317,5.11356196030545,1.34762048681523,3.51082468581399,0.768532203606071,43.0436569582462,1093.76284444653,5.99803338550178,22.5129312799531,0,10
7.89879230785044,2.64350020883622,-2.5940169553042,30.8789605617552,46.1582194977655,5.11336949232708,1.5161705346124,3.94163744211943,0.764999655181498,43.0995617972794,1062.51011977923,5.95284196353673,22.3560982291781,0,10
7.89813132528582,2.62645786870855,-2.7885559836709,30.8809188294255,46.4870974516992,5.11862740524344,1.6809678618564,4.3047265182833,0.824991868672214,43.1213203269503,1043.7023966822,5.91244476932925,22.3719169403797,0,10
7.89635088447101,2.60664437277073,-2.96279594107961,30.8779883584937,46.8039574256084,5.12453961364332,1.83883146563323,4.64376380293601,0.88328614924518,43.0887595388192,1046.15615597978,5.86588328728057,22.5228253554905,0,10
7.89371854655859,2.58261249436851,-3.16646805764498,30.8700938433811,47.165895897875,5.12753625788048,1.98684128820946,5.00529952327821,0.888383149320589,43.0010427042349,1060.11916266172,5.80992200717368,22.674769957655,0,10
7.89056611044339,2.55704474824796,-3.41511244120591,30.8584195430111,47.572224884973,5.12742856160594,2.12456715627286,5.40195372941537,0.837440978357961,42.871328255679,1068.69147416319,5.75063626821284,22.7152652180026,0,10
7.8869784951993,2.5340333455197,-3.6816160947381,30.8444347755053,47.9132274449682,5.12665977888656,2.25397856316852,5.80618325101096,0.764434851912085,42.715941950059,1065.86924913866,5.69725175506177,22.6323009855417,0,10
7.88284180009108,2.51620356346367,-3.92323875787298,30.828514360765,48.207804242185,5.12773631772325,2.37755894403858,6.1772173210415,0.705561795546885,42.5390484529443,1046.33027873786,5.65566389790889,22.4960233296321,0,10
7.8780916266139,2.50374907621897,-4.11162149910621,30.8101505823217,48.4283258584675,5.13147187262206,2.49702656044661,6.48918044314479,0.677336818338347,42.3350064702416,1020.91732716779,5.62627987288361,22.3857035270109,0,10
7.87273785822086,2.49504528764928,-4.24382345148854,30.7890544811716,48.5779282603054,5.13688284505054,2.61253620509257,6.74085001193515,0.66760378623087,42.1006053463512,999.617136310114,5.60541949631308,22.3397019406004,0,10
7.8669294398051,2.48856883539561,-4.33651434174556,30.7652662659361,48.6764457900724,5.14220652057543,2.72324603995054,6.94905054683812,0.653223039702027,41.8362918437348,985.323599905973,5.58964616579431,22.3331452869033,0,10
7.86089727594727,2.48403927643749,-4.40564746987116,30.7394441497825,48.7382598107644,5.14634411977846,2.82843457200659,7.12889350982169,0.619313780828236,41.5493794420273,974.629643296075,5.5783304898011,22.3154208763851,0,10
7.85472835713264,2.48175077630131,-4.4540810664846,30.7126121535618,48.7692650690517,5.14959279324972,2.92880264672743,7.28251563849119,0.566506227225659,41.2512461506872,963.202041026513,5.57212562713735,22.2528531460262,0,10
7.84857586284665,2.48326346250178,-4.47857745688771,30.6851558220849,48.7567036607717,5.15266773346946,3.02469108344314,7.40738010361514,0.507936461224176,40.9461758009437,946.666007833687,5.57454409640407,22.145978880866,0,10
7.84247524596866,2.4889943581767,-4.46238352099664,30.6577564268213,48.6877735895725,5.15641818597311,3.1169790180727,7.48707460443978,0.458488028064266,40.6417380757918,926.807818793038,5.58651283148823,22.0238684797823,0,10
7.83915932469422,2.49840084923863,-4.40110094746848,30.6305720991809,48.5791340801833,5.16109585289917,3.20604423968365,7.51807996554118,0.423032463631898,40.3396899908993,906.998915674079,5.6068000893456,21.9201908760409,0,10
7.83721247797333,2.5103554781329,-4.30074978609912,30.6157896901152,48.4291756910337,5.16617155479958,3.2915857735893,7.50679402578277,0.397071050577608,40.1754410012801,891.046295145306,5.63286381491425,21.846452185619,0,10
7.83538260786861,2.52384433917445,-4.1736346851618,30.6071084363477,48.2451045553668,5.17092791903735,3.37300278198313,7.46522045875111,0.37365275319371,40.078982626086,879.471411848166,5.66242285300237,21.7930874442944,0,10
7.83373548490807,2.53825597056802,-4.03076611948376,30.5989473176817,48.041441178277,5.1749873370577,3.4498497907432,7.40376890146689,0.349004606697463,39.988303529797,870.986316064185,5.69410303515588,21.7448605567521,0,10
7.8323199345889,2.55340383774659,-3.87877408962214,30.5916000145309,47.8245605960636,5.17835026923768,3.5217068566493,7.32862388036534,0.324184131583308,39.9066668281212,864.131569962628,5.72748857965366,21.6934864575699,0,10
7.83116967339696,2.56920996123137,-3.7197340104745,30.5852847560482,47.5973436081679,5.18126175157988,3.58836684947204,7.2414408671238,0.303491628894335,39.8364972894241,857.980985660907,5.76240647254695,21.641370941344,0,10
7.83031255090881,2.58543536781456,-3.55455753285111,30.5801524113882,47.3623206746038,5.18395777263316,3.64961679490267,7.14292438232314,0.290316663716965,39.7794712376468,852.883867502763,5.79832108861132,21.598090495299,0,10
7.82976784830955,2.60166675273651,-3.3858134283347,30.5763276520016,47.0978321903994,5.18645601928569,3.70514699064285,7.03543022323737,0.284995883543331,39.7369739111285,850.703625253061,5.83430517637988,21.5711826849847,0,10
7.8295476927821,2.61746266680369,-3.21782299650357,30.5738968480761,46.8244253005367,5.18860787462671,3.75451911673616,6.92296998714642,0.285319414075843,39.7099649786235,851.498384886946,5.86936972209472,21.5614365929112,0,10
7.82966816274388,2.63243934207743,-3.0551143326885,30.572914340209,46.5670561128622,5.19024626322664,3.79722315002181,6.80963344942467,0.288338581703215,39.6990482245447,852.421440169017,5.9026567058034,21.5640496808285,0,10
7.83014091506253,2.64644129526984,-2.90154260728508,30.5734519749147,46.3247694400023,5.19131584914362,3.83280317977631,6.69876575730689,0.292295329759725,39.7050219434966,854.703213651579,5.93382211409972,21.5726126953889,0,10
7.83096384826236,2.6594826726722,-2.75857420988751,30.5755617191594,46.0983528234423,5.19189659200936,3.8610294859879,6.59137738966382,0.297534346187774,39.7284635462155,857.817729124489,5.96290171376016,21.5833149744388,0,10
7.83212282431866,2.67159859328853,-2.62593772610376,30.5792339814175,45.8872391220285,5.19215307672499,3.88175878717573,6.48696721209166,0.305189301865653,39.7692664601948,861.50440874231,5.98997747666233,21.5969133943256,0,10
7.83359375853424,2.6827185934248,-2.50316229091311,30.5844053109889,45.691950239846,5.19222183345761,3.89492125875887,6.38492107808884,0.31488781066048,39.8267256776547,866.009786087929,6.01489247389245,21.6158794416652,0,10
7.83534157196517,2.69282900008074,-2.39085623011778,30.5909677629518,45.5129297395935,5.19213721871068,3.90077183429213,6.28577748887665,0.325971072296795,39.8996418105759,871.290843281073,6.03761397268277,21.6394410270776,0,10
7.83733440806916,2.70190793384596,-2.28905764254472,30.5987642833991,45.3506914493587,5.19190184436889,3.89945395854249,6.18982947683685,0.337553726851411,39.9862698155453,877.256566166296,6.05809179519126,21.6662130017326,0,10
7.83953629600479,2.70997452874311,-2.19789545728605,30.6076521868233,45.2053478413725,5.19153429899586,3.89122053962586,6.09734941582855,0.348931991634402,40.0850242980368,883.695111560663,6.07636678685614,21.6943206302602,0,10
7.84190803123757,2.71708457843807,-2.11709614775157,30.6174704688733,45.076459053542,5.1910778993178,3.87646983623,6.00831668737743,0.359818727531433,40.1941163208139,890.356601679951,6.09256060556556,21.72227038345,0,10
7.84440824022203,2.72331961843538,-2.04603168914525,30.6280437839146,44.9652764645179,5.19058212835097,3.85588974264385,5.92250152537525,0.370250223848302,40.3115975990507,897.075432143836,6.1068494903179,21.7494527986809,0,10
7.84699903366466,2.72873768273124,-1.98383076343185,30.6391872364488,44.8698557408799,5.19010760755708,3.83002999904659,5.83972050607571,0.380392834133431,40.4354137383204,903.704231614876,6.11935812568133,21.7759461856974,0,10
7.84964032040569,2.73338617205975,-1.92986908029411,30.6507316055495,44.7880471761517,5.18969331904924,3.79971416898638,5.7598990793407,0.390295581530438,40.563684506106,910.245092531878,6.13018398546684,21.8021069740258,0,10
7.85229490996346,2.73730725909958,-1.88363782510743,30.6624980167628,44.7195329660909,5.18935088468226,3.76585507901024,5.68335199409381,0.39991201923084,40.694422408475,916.598447966498,6.1394116205909,21.828041546915,0,10
7.85492658528894,2.74053076803498,-1.84468799307569,30.6743206881324,44.6638998830616,5.18908714996797,3.7293891720463,5.61054307208593,0.409123991534955,40.8257854236935,922.609431600775,6.14709737183953,21.8536508722466,0,10
7.85750749300359,2.74310108434154,-1.81269969416161,30.6860383388316,44.6203481559144,5.18889043027474,3.69139618516647,5.54208886620791,0.417857228292291,40.9559815425729,928.337973682712,6.15332870203951,21.8786789288548,0,10
7.86001150174113,2.74506502762978,-1.7872140849567,30.6975270758322,44.5884023967504,5.18875831722244,3.65290600368417,5.47861027012317,0.42614530063895,41.0836341759136,933.66652167221,6.15819909297823,21.9029589201778,0,10
7.86242041479809,2.74647004448717,-1.76775328182953,30.7086707887532,44.5674510055252,5.18868801540106,3.61490794166309,5.42065928551369,0.434094713483205,41.2074532083693,938.62540694814,6.16180389504154,21.9265521640768,0,10
7.8646573274305,2.74727365959955,-1.75383748862436,30.719388772006,44.5587370442053,5.18876909659554,3.57905988723246,5.36874543028745,0.441486929211919,41.3265419111781,942.575417170457,6.164027959329,21.9496767896854,0,10
7.86672291857993,2.74753071310834,-1.74588066100063,30.7293392610408,44.5602600403581,5.18894889411303,3.54635778238236,5.32494054823309,0.448278242347726,41.4371029004536,946.06708735512,6.16498323969349,21.9718526603673,0,10
7.86873042893774,2.74744575539463,-1.74333587784344,30.7385257674576,44.5679542684936,5.18907973204188,3.51544622590637,5.28969366022579,0.4552127950775,41.5391751939732,949.908687800406,6.1651465032167,21.9929675505723,0,10
7.8705713820676,2.7469724560176,-1.74417692351545,30.7474522265181,44.5848694808539,5.18927449881835,3.48873593844047,5.25962314942183,0.46257487502902,41.6383580724237,952.61105166774,6.16438540358214,22.0146083283595,0,10
7.87227079420103,2.74609576861103,-1.74886275535414,30.7556365774784,44.6089876831165,5.18952616575257,3.46606269215948,5.23759869379461,0.470100626074611,41.7292953053157,955.133314071485,6.16266776033552,22.0373966551225,0,10
7.8738173104252,2.74480671194896,-1.75754391562265,30.7631903992292,44.6406415707694,5.1898147465896,3.44790877667305,5.22360660778213,0.477408850703739,41.8132266581021,957.401029441555,6.15996770063591,22.0607795131948,0,10
7.87519862987081,2.74310686440926,-1.77031233069852,30.770063538279,44.679651864125,5.19014002611897,3.43468094672903,5.21822110737156,0.484038949335627,41.8895948697664,959.276710403057,6.15628410320181,22.0839386629185,0,10
7.87642618158595,2.74103276600511,-1.78715679425216,30.7762016391518,44.7249483022958,5.19049254835841,3.42607629329905,5.22183774098119,0.48982712565595,41.9577959905755,960.931066992981,6.15170293255732,22.1058665566055,0,10
7.87748784130282,2.73863383472501,-1.80772075696797,30.781655770183,44.7761208121958,5.19088964392375,3.42232761619437,5.23379705026701,0.494765241631342,42.018397446478,962.042750291464,6.14633312338348,22.1261795295954,0,10
7.87840002169261,2.73597197626193,-1.83152028549119,30.7863723112754,44.8316183572219,5.19134812060611,3.42289191381536,5.25384790168556,0.499136248001889,42.070803458616,962.847405477352,6.14032071561875,22.1448243909497,0,10
7.87915453122306,2.73309381269928,-1.85794709666351,30.7904243918838,44.890647367624,5.19189500296289,3.42778317229863,5.28083901047887,0.503001972315474,42.1158265764872,963.238679249148,6.13377090893515,22.1623815946663,0,10
7.87976808245737,2.73003184887373,-1.88654368013744,30.7937758014917,44.9522459260426,5.19251628530083,3.43638124702164,5.31432685243607,0.506392872278184,42.1530644610186,963.475449775839,6.12676430981513,22.1789613552939,0,10
7.88024229079606,2.72682216816417,-1.91699193991451,30.7965009190768,45.015865850181,5.19321218821051,3.4483878795308,5.35337318693615,0.509139674273399,42.1833435452982,963.496603304519,6.11938591073103,22.1946079632658,0,10
7.88058266073462,2.72349305311719,-1.94893736967015,30.7986070290488,45.0807827355158,5.19397275466577,3.46338785186225,5.39732524920095,0.511014381983045,42.2067447672084,963.318202752828,6.11170442479632,22.2089295207891,0,10
7.8807966004115,2.72009423905993,-1.98210214420288,30.8001186613558,45.1461965772668,5.19479728595314,3.48092536131696,5.44548999606513,0.511891291294546,42.2235406817315,962.932678713767,6.10383739838424,22.2213974033783,0,10
7.88089180289508,2.71668340824603,-2.01599351364746,30.8010687733756,45.2121719968766,5.19569119830123,3.50056141035714,5.49691887496442,0.511789958116879,42.2340974819513,962.3015650224,6.0959200719152,22.2316973912807,0,10
