Pdis,Psuc,T0,Tc,Tdis,Tret,Tsuc,Tsh,Tsup,CondFan,CprPower,Density,Cpr,Tset,Tamb
7.99169255251836,3.42269800635642,4.36834516760712,31.2895958632702,38.4225152016111,12.6942069377466,9.7125196629342,5.37972991555739,6.98159758853353,47.662176258558,773.972441702072,7.60228905091278,22.6143025840373,7,10
7.99208474255063,3.42476943048087,4.3872228171964,31.2909700163852,38.387275457914,12.6940387190966,7.67495561426614,5.3252968457378,6.98468197274002,47.6774446265021,776.786804511104,7.63571299220613,22.6192710361263,7,10
7.99255130437254,3.42661181244835,4.40453919959981,31.2926934794409,38.3555340275381,12.6938344216495,7.63599406349016,3.27041641466633,6.98817963905185,47.6965942160101,779.562543487394,7.64040031178893,22.6253103060162,7,10
7.99320839133316,3.42779775095474,4.41993412820926,31.2947436834247,38.3364949295304,12.6936197737293,7.59869411185508,3.2160599352809,6.99742681293515,47.719374260274,783.708519740481,7.64359149013936,22.6322491573487,7,10
7.99409930897532,3.42851168320229,4.42984046601049,31.2976309558252,38.339357230119,12.6933864407796,7.56857129084074,3.16885364584459,7.01999301485046,47.7514550647243,787.075190061977,7.6456217515726,22.6510498595139,7,10
7.99520422717817,3.42915786718034,4.43580279240433,31.3015454065898,38.3656604751648,12.693033290136,7.55506741845755,3.13276849843641,7.06199538841986,47.794948962109,786.377333373912,7.64726398846498,22.6973338719826,7,10
7.99648766518683,3.42852094341665,4.44119850655659,31.3063996619931,38.4151189772967,12.6922229909557,7.56377562075915,3.11386891190097,7.11775639338407,47.8488851332562,786.23348321743,7.64571067581164,22.7840203400083,7,10
7.99795073349109,3.42537455348501,4.43588012181363,31.3120375779234,38.4915028284856,12.6903803415654,7.59289207904317,3.12789549894552,7.1758047878505,47.9115286435931,789.733912888364,7.63823546762381,22.9002097957405,7,10
7.99956608994971,3.4187884926017,4.40959630208954,31.3184637477328,38.6012398538475,12.6873021821529,7.64035401701608,3.18329577695363,7.22470454221258,47.9829305303642,797.245558600754,7.62278221848984,23.023090565288,7,10
8.00128608621996,3.40872200380382,4.35451875697663,31.325557778962,38.7474668838266,12.6832338438574,7.70185981707573,3.28583526003945,7.25820971799391,48.0617530995782,806.426996105128,7.59932457426193,23.1293573305486,7,10
8.0030249697273,3.39592007451212,4.2701779802552,31.3331101639993,38.9247827320936,12.6788601409526,7.7738529107279,3.43168183682053,7.27773644666877,48.1456684888814,814.310841004098,7.56958933287842,23.2056421312718,7,10
8.00468666397724,3.38137020190949,4.16264253029919,31.3407442402521,39.1236270530369,12.6748575297314,7.85356257106122,3.6112103804287,7.2894543606252,48.2304915583566,819.402705830666,7.53583528361782,23.2540680716084,7,10
8.00614296795481,3.36582339969033,4.0400466138143,31.3480382730979,39.3346120780546,12.6719563424882,7.93954570779539,3.81351595724692,7.29930623368824,48.3115363677541,821.495300256906,7.49977048817285,23.2868527745485,7,10
8.0073109419558,3.34954914601943,3.90860303275753,31.3544298056673,39.5510253227737,12.6701646445545,8.02982380812665,4.03094267503786,7.30978826803801,48.3825533963031,822.413273951243,7.46202927284672,23.3161876274936,7,10
8.00816805349174,3.33249639699837,3.77050956370795,31.3595552627789,39.7706273915699,12.6691188882052,8.12236179468766,4.2593142444187,7.31927508468061,48.439502919766,823.711734451933,7.42252733995291,23.3473212026468,7,10
8.00865603713467,3.3146027765475,3.62525729845345,31.3633161945741,39.9937171291911,12.6685081404642,8.21539316063229,4.49710449623421,7.32336998118672,48.4812910508235,825.612466930186,7.38115087042383,23.376778880335,7,10
8.00875263765847,3.29615972036927,3.47222862576695,31.3654572896141,40.2181510602899,12.6680999453087,8.30735660477592,4.74316453486534,7.31938889109006,48.5050809957121,827.059448752216,7.33857545054967,23.3949077052172,7,10
8.0084303144722,3.27784247988216,3.31383670919621,31.3658811260008,40.4435276304889,12.6679145263311,8.39722497678065,4.99351989557971,7.30755598875965,48.5097902888975,833.258117010233,7.2963278952822,23.3954463274319,7,10
8.0076443043515,3.26094571137959,3.15585113338727,31.3644669127289,40.6808793706742,12.6681256819367,8.4843761846812,5.24137384339338,7.29078141619783,48.4940768080991,833.39627055439,7.25731470939883,23.3783535363511,7,10
8.00641487531168,3.24735277658395,3.00951549795241,31.3610180643199,40.8971364153736,12.6688956977742,8.56875045743965,5.47486068672879,7.27168194463189,48.4557562702214,822.110236370952,7.22575003764059,23.3496029862601,7,10
8.00476261967081,3.23546927043418,2.89137016297184,31.3556230755161,41.0840409444444,12.6702418101322,8.65013864378329,5.67738029446781,7.25116079981598,48.3958119501785,813.880401166713,7.19806284407672,23.314775045469,7,10
8.00271423364707,3.22517322729142,2.78777137125246,31.3483716545775,41.2442141277733,12.6720381573788,8.7281901737249,5.86236727253083,7.22913588287071,48.315240606417,805.939126310139,7.17398206872279,23.2758357716149,7,10
8.00031673396101,3.2166431336095,2.6977755393018,31.3393801329425,41.3775089654894,12.6741169656772,8.80274614267927,6.0304146344231,7.20580862829985,48.2153348104722,797.35428828155,7.15390668601609,23.2326235833753,7,10
7.997619564036,3.21012365656529,2.62304841206907,31.3288539552684,41.4805693440389,12.6762996367183,8.8733978987525,6.1796977306102,7.18178522945755,48.0983772807595,788.307793550367,7.13838694318791,23.1856205117057,7,10
7.99470291330458,3.20552365972574,2.56583251577223,31.3170092443036,41.5542632655296,12.6785770383905,8.94030020734709,6.30756538298027,7.15709678448019,47.9667693811507,778.985040487723,7.12721444559343,23.1362342972343,7,10
7.99163347445355,3.20277717780769,2.52540858020052,31.3041972940098,41.5997120610823,12.6809310267699,9.00341069200817,6.41489162714657,7.13126919969125,47.8244143778865,769.503695790637,7.12024010843207,23.0846173107151,7,10
7.98847387125594,3.20187502161703,2.50125176596691,31.2907103947319,41.6175106336099,12.6833387698657,9.06266143314372,6.50215892604126,7.10450653558479,47.6745599414661,759.822930001088,7.11744249026114,23.0298002189609,7,10
7.98528296184857,3.20280700098838,2.49331333878831,31.2768232489382,41.6080559581998,12.6857902088211,9.11796877194945,6.56934809435541,7.07759824679749,47.5202583215352,749.957228148209,7.11879839536326,22.972323932625,7,10
7.98208253001996,3.20533801640407,2.50151416255858,31.2627943114123,41.5746074478935,12.6884214304124,9.16980224258333,6.61645460939087,7.0507148244015,47.3643812379148,739.778208477572,7.12377478100519,22.9140433382421,7,10
7.97894824466306,3.20960849106701,2.52377624608306,31.2487192716002,41.5154646647356,12.6910677036194,9.21747435630863,6.64602599650027,7.02523866397536,47.2079919066687,729.75885992906,7.13269377064283,22.8554460179621,7,10
7.97610636540958,3.21548276145041,2.56130754651434,31.2349310192575,41.4330146122782,12.6936484723211,9.2608762383602,6.65616680979429,7.00284430112083,47.054789102861,720.156351017384,7.14525286072966,22.7996966468369,7,10
7.97352463281406,3.22267562973394,2.61287132844939,31.2224255884205,41.3299919120383,12.696127765539,9.29984109836766,6.64800490991081,6.98367387716269,46.9158398713388,711.480124879529,7.16081638669684,22.750580501213,7,10
7.97112453515106,3.23089533510439,2.67591127628839,31.2110620032602,41.2095038886629,12.6984150932057,9.33400196110199,6.62392982207928,6.9672319455276,46.7895778140025,704.156812969425,7.17873702084249,22.7084404591221,7,10
7.96895020780198,3.23987947681144,2.74781860612359,31.2004954075973,41.0759074989389,12.7004231667332,9.36309765939154,6.5861833549784,6.95305582696034,46.6721711955251,698.049858863316,7.19843195974448,22.6721363872074,7,10
7.96704675581194,3.24941123289485,2.82625296697017,31.1909207148181,40.9328362563179,12.7021311342974,9.38689986032813,6.53684469242137,6.94099623425257,46.5657857202012,693.035106419965,7.21942005807604,22.6406216646312,7,10
7.9654707201909,3.25931710598458,2.90928593798907,31.1825372135236,40.7831349843509,12.703543713624,9.40509735602069,6.47761392233906,6.93129198420149,46.4726357058175,689.130864896132,7.24131826975895,22.6135555572988,7,10
7.96422885732678,3.2697474715299,2.99538013813162,31.1755946337353,40.6299739922071,12.7046782099144,9.41759273064167,6.40971721788907,6.92426343759774,46.3954959303919,684.839962955096,7.2644647225305,22.5914627265295,7,10
7.9633438294846,3.28159505222754,3.08581613782121,31.1701233872616,40.4681590754764,12.7055546676993,9.42488324070769,6.33177659282046,6.92001839867464,46.3347043029071,678.352252693984,7.29084900445766,22.5750632685018,7,10
7.96281079067523,3.29339894249015,3.18827199359276,31.1662238488981,40.3053093455765,12.7061766210849,9.42646143349469,6.23661124711492,6.91840870615977,46.2913760988682,681.992636933393,7.31721335919395,22.5646279820249,7,10
7.96264691866334,3.30492128612347,3.29006826069934,31.1638750589306,40.159416898195,12.7065089330859,9.42117136529254,6.13639317279535,6.91909400528499,46.2652784325624,683.87980438994,7.34304260620582,22.55987693431,7,10
7.96279530551651,3.31604819933961,3.38916695168433,31.163152947141,40.0208026086953,12.7066086664561,9.40992816640846,6.03200441360821,6.92214017932139,46.2572549682332,685.252051005258,7.36807058295807,22.5601109930438,7,10
7.96328264456139,3.32656641738347,3.48461356343796,31.1638068231338,39.8894713805025,12.7064631448998,9.39203141002974,5.9253146029705,6.92745412495543,46.2645202570425,687.357735479776,7.39183073999008,22.5655133069553,7,10
7.96404134054264,3.33644715543566,3.57461325660944,31.165954248771,39.7654911985239,12.7061086690043,9.36873367020382,5.81741815342031,6.93463781573996,46.2883805419002,690.270293238632,7.41424214399086,22.5759180569828,7,10
7.96506286061721,3.34555927195423,3.65895978031159,31.1692971931363,39.6501101132285,12.7055342252418,9.34020926809711,5.70977388989223,6.9433713612259,46.3255243681816,693.955843946029,7.43500949523393,22.5904878304228,7,10
7.96632943336927,3.35380245687231,3.73657542417897,31.1737978070243,39.5443905375888,12.704764520405,9.30678642714111,5.60363384391815,6.95310897106259,46.3755311891589,698.238750991444,7.45390411092763,22.6085444297001,7,10
7.96780830430283,3.36111159355514,3.8066501438409,31.1793774712524,39.4498493956257,12.7038373456181,9.26914318552338,5.50013628330021,6.96322482902872,46.4375274583599,703.254934441861,7.4707709668475,22.6289089710535,7,10
7.96947504755837,3.36747085726035,3.86867423455539,31.185891533439,39.3674791323223,12.7028009276666,9.22803707284169,5.40046895096799,6.97336541465387,46.5099059271002,708.606967672079,7.48556396858577,22.6502200542087,7,10
7.97131417557551,3.37290737742576,3.92255381215796,31.1932320368161,39.2974482206786,12.701704739269,9.18444313265155,5.30548326068373,6.98340960368677,46.5914670757349,714.109750452194,7.49832992509903,22.6717012032342,7,10
7.97327718850653,3.37746173072503,3.96855353952327,31.2013303997376,39.2395749226649,12.7006020498281,9.13936292024778,5.21588959312828,6.99343426199744,46.681448885973,719.557034853481,7.50914524356126,22.6930775484231,7,10
7.975324026557,3.38117145720038,4.00704531277097,31.209972723247,39.19362727335,12.6995419958797,9.09384809279061,5.13231760747681,7.00351900401751,46.7774747027445,724.795344991784,7.51807876740354,22.7145022121291,7,10
7.97741467691326,3.384052078974,4.03836921223956,31.218982389184,39.1591144064058,12.6985721733727,9.0489434875139,5.05547888055105,7.01360300943287,46.8775821020447,729.920491649161,7.52515012254331,22.7361361117394,7,10
7.97951297618838,3.38613556221173,4.06267421935723,31.2281831103204,39.1358468533389,12.697671266652,9.00561778341347,4.98626926815666,7.02357934680242,46.9798123368933,734.795886527142,7.53041677277527,22.7578574803756,7,10
7.98171268891995,3.38742998222004,4.08024355639759,31.2374156698156,39.1246750025437,12.6968519374394,8.96498837909905,4.92537422701588,7.03327699673417,47.082396331284,739.183704275538,7.53388065986799,22.7794561580955,7,10
7.98388396656396,3.38792849334271,4.09115480749074,31.2470924899025,39.1246470347098,12.6961134040137,8.92807573902593,4.87383357160832,7.04241608423632,47.1899165544717,743.216258191102,7.53551171644481,22.8005824994462,7,10
7.98591361355913,3.38771193542493,4.09535613070324,31.2566422531145,39.1343395561236,12.6954472779503,8.89557463888508,4.83271960832269,7.05098883529251,47.2960250346053,746.803469337493,7.53548076460003,22.820649799028,7,10
7.98786223505647,3.38698635318166,4.09353109461313,31.2655673266027,39.1509836462045,12.6947259042968,8.86619883424993,4.80204354427195,7.05960272295255,47.3951925178078,750.413910606607,7.53426669612916,22.8396480380615,7,10
7.9896562890195,3.38572908592716,4.08741561784893,31.2741344970002,39.1755740122651,12.6940535324923,8.84169892321341,4.778783216401,7.06852631075935,47.4903833000023,753.223089337947,7.53179418107247,22.8588821406628,7,10
7.99128081875283,3.3838765864832,4.07681652462759,31.2820207168509,39.2073875115618,12.6934605267323,8.82233019094912,4.76488239858583,7.07725199787717,47.5780079650096,755.802785245475,7.52791730406549,22.8789398935037,7,10
7.99269453792306,3.38139419511353,4.06119396970104,31.2891606007329,39.2466827282106,12.6929646597343,8.80883021315867,4.76113622124808,7.08490433948782,47.6573400081438,757.996331600864,7.52254817462016,22.8987512359457,7,10
7.99396100615829,3.37842002988334,4.04024911088942,31.2953730739044,39.2916127549124,12.6924503844176,8.79957063663971,4.76858110226925,7.09160083144752,47.7263674878265,760.182651331106,7.51601878797108,22.9164457353611,7,10
7.9950251238858,3.37500498600735,4.01513944964819,31.3009377629973,39.3420656854994,12.6919973323743,8.795521136231,4.78443118699153,7.09726285850252,47.7881973666368,761.710583980102,7.50842972744085,22.9322590014255,7,10
7.99589640911281,3.37122187852158,3.98628672610926,31.3056128388103,39.3965771738191,12.691620174249,8.79618312058557,4.80923441012175,7.10205983869952,47.8401426534478,762.872622021186,7.49995117287599,22.9460050027483,7,10
7.99660619828722,3.36716512912254,3.95429820294908,31.3094403792434,39.4539942070846,12.6912882293545,8.80064031639017,4.84188491763649,7.10620769181952,47.8826708804825,763.764407278472,7.49080748596985,22.9580254606594,7,10
7.99715138460107,3.36288070073349,3.91996528151105,31.3125582385094,39.5135637812076,12.6910154021116,8.8086735204256,4.88067503487912,7.10967045011108,47.9173137612154,764.386835055258,7.48110484011472,22.9687645153648,7,10
7.99747923155283,3.35841533859794,3.88367103410883,31.3149529127695,39.5745834167639,12.6908635583939,8.82088490410177,4.92500248631677,7.11204745750803,47.9439212529946,764.556910247081,7.47093978787731,22.9781290888062,7,10
7.99761222367152,3.35387202227358,3.84580632002167,31.3163928873269,39.6357224540449,12.690798932259,8.83648182206184,4.97507858408011,7.11343431287122,47.9599209702984,764.436779902591,7.46055408820827,22.985238832131,7,10
7.99766547855978,3.34926044582394,3.8072409521871,31.3169770047504,39.6969325911664,12.6907416672369,8.85334215729642,5.02924086987474,7.11399650758125,47.9664111638928,764.389406936179,7.44999895517095,22.9902702757818,7,10
7.99757489366245,3.34463276081889,3.76805518997526,31.317210904593,39.757463328377,12.6907533040681,8.87215373589669,5.08528696732117,7.11320415125499,47.9690100510336,764.001232591709,7.43938173472981,22.9935531199887,7,10
7.99734297119857,3.34011804564916,3.72869094810397,31.3168130475864,39.8161528319269,12.6908620085049,8.89261207372033,5.14346278779271,7.11127877760737,47.9645894176264,763.236188014187,7.42899562577794,22.9939213280133,7,10
7.99698792678267,3.33579048007713,3.69024739703644,31.3157944078403,39.8721209851329,12.691069087411,8.91425207145102,5.20236467668389,7.10857943948685,47.9532711982251,762.154616273729,7.41901308438909,22.9918172717542,7,10
7.99648037636578,3.33187277179128,3.65336004285274,31.3142349541694,39.9224751691737,12.6913787023225,8.93708133871957,5.26089202859828,7.10572396140424,47.9359439352152,760.694532693501,7.40993237460366,22.9879880998599,7,10
7.99588423511948,3.32826747084516,3.61993457984079,31.3120055613451,39.9684914801199,12.691757562323,8.96028968716354,5.31714675887878,7.10264915582644,47.9111729038342,759.09755190506,7.40154644563669,22.9837512548221,7,10
7.99523241361202,3.32482633494072,3.58914790680564,31.3093869012695,40.01177539305,12.6922130862748,8.98353590563488,5.3711417803579,7.098740808824,47.8820766807726,757.459859435078,7.39352817060127,22.9789684434902,7,10
7.99450409886826,3.32171442374381,3.55973922578892,31.3065234873177,40.050351423293,12.6927188731903,9.00658446283069,5.42379667984596,7.0934950796281,47.8502609701966,755.86370416379,7.38625001393019,22.9723086581587,7,10
7.99372033940574,3.31900492413338,3.53312406694545,31.303323835295,40.0842245224124,12.6932629720873,9.02925197615104,5.47346039588524,7.08760803249282,47.8147092810553,753.9315640737,7.37987808967975,22.9626664371213,7,10
7.99288921047384,3.31680841571001,3.50993502819978,31.2998803570756,40.1119553965034,12.6938549394371,9.05125626394573,5.51931694795127,7.08163008188279,47.7764484119512,751.774466962007,7.37466347731474,22.9515224680995,7,10
7.99203511910047,3.3152484437584,3.49112572823827,31.2962284817427,40.1319460847249,12.6944597302876,9.07217633989745,5.56013053570746,7.07647782195164,47.7358720193637,749.615296645228,7.3708881069431,22.9400593406986,7,10
7.99117088186053,3.31412894777668,3.47776146211561,31.2924754147346,40.1462950915536,12.6951024797108,9.09207276569691,5.59441487778184,7.0715416502245,47.694171274829,747.453363367998,7.36811234985939,22.930261726824,7,10
7.99031161673274,3.31340274726547,3.46816777754481,31.2886774574143,40.1554284511649,12.6957553313873,9.11073192562918,5.62390498815211,7.06634895892699,47.6519717490476,745.433736305098,7.36623343907934,22.9208332064718,7,10
7.98946989322106,3.31305949126902,3.46194316712365,31.2849010440911,40.1596240098863,12.6963985644612,9.12797477763729,5.64878875850553,7.06075115554205,47.6100116010122,743.526341794648,7.36523054633587,22.9107616944885,7,10
7.98865584747334,3.31311025874589,3.45900059239847,31.2812014287925,40.158959091512,12.6970322041015,9.14366957079227,5.66897418523882,7.05490520755768,47.568904764361,741.656563698746,7.36513015088533,22.8997267353915,7,10
7.98787794029088,3.31356459714214,3.45943581320233,31.2776231862616,40.1534453704582,12.6976657898402,9.15772368451258,5.68423375758994,7.04910818578696,47.5291465140174,739.786930256546,7.36595478890169,22.8880649483739,7,10
7.98714385493757,3.31441568021485,3.46333055008324,31.2742035391275,40.1431798472727,12.6983054072255,9.17006824824267,5.69439313442933,7.04363255331532,47.4911504347505,737.937228364065,7.36769006971664,22.8764171160082,7,10
7.986421406559,3.31553700897551,3.47062520981632,31.2709763011483,40.1296950394918,12.6990254420231,9.18142910127551,5.69944303842635,7.03823516731711,47.4552922349814,735.873062241006,7.37004312500293,22.8653743804368,7,10
7.98576212346319,3.31703846676263,3.48023396125654,31.2678000046048,40.1113531939912,12.6997283124792,9.19078162782915,5.70119514001897,7.03328336262632,47.4200000511644,734.173439694341,7.37327367963957,22.8544225545523,7,10
7.9851593199762,3.31887837704675,3.49309616578211,31.2649012301672,40.089110994705,12.700399585238,9.19841556658895,5.69768546204705,7.02910295333641,47.3877914463022,732.501302173104,7.37728456986929,22.8443540870165,7,10
7.9846347908192,3.32101312550907,3.50885163018211,31.2622506310163,40.0630463450512,12.7010078805071,9.20400631617827,5.68956393640684,7.02583442348316,47.3583403446254,731.166980202361,7.38198270542341,22.8358745966737,7,10
7.98417949926719,3.32335419885066,3.52712345288586,31.2599440909956,40.0342974894546,12.7015707398652,9.20783666117256,5.67688286329241,7.02321556698445,47.3327121221732,730.053428100351,7.38716630315356,22.8292943568697,7,10
