Pdis,Psuc,T0,Tc,Tdis,Tret,Tsuc,Tsh,Tsup,CondFan,CprPower,Density,Cpr,Tset,Tamb
9.48461715705673,2.73068621281817,-1.91047100753372,37.4356361507526,60.0758790301329,18.096028387886,11.6775340496414,13.5880145105174,7.00193616019482,100,4214.66011115929,6.03563637949633,88.7062875232027,7,10
9.48110403824213,2.67289217151695,-1.91048271474682,37.4356329067813,60.1753338206831,17.9437303284093,11.5660226091122,13.5880167643882,6.3758147564921,100,4673.50332211218,5.90847810499898,88.7062946123695,7,10
9.46468802796455,2.48460674494028,-2.49007933548313,37.4220568121944,60.496339082957,17.5201936436367,10.5734843682932,14.0561019445953,3.37633429295329,100,5392.74242218227,5.50036943356981,87.4212744334374,7,10
9.44420566075411,2.32228101101425,-4.44800951116906,37.3585686903239,58.7271985554675,17.252360290354,8.49493500798269,15.0214938794622,0.217595268824141,100,6370.92861877117,5.15911130508882,80.580897842822,7,10
9.40752562413093,2.19815701407609,-6.23027216992767,37.2792381043319,56.280055309566,17.1341864713427,6.21789476581324,14.7252071779104,-2.24771680524799,100,7122.60279019847,4.90272371041787,71.7482768928808,7,10
9.34155890122159,2.1347831720711,-7.65934298116264,37.1368486988413,54.5102349398464,17.0916372955428,4.14181530729502,13.8772377469759,-4.07833838581399,100,7233.54711229371,4.77908758760741,63.2528525588234,7,10
9.27120768234814,2.11332973411606,-8.41324145228538,36.8797180256183,53.9279756968317,17.082409426674,2.34844588017404,12.5550567595804,-5.31609843054025,100,6741.82835057319,4.74661286610906,55.4940220384318,7,10
9.20374493177702,2.12170322537814,-8.67238556771315,36.603990410517,54.136028229052,17.0872684494126,0.854179191258766,11.0208314478872,-6.0465811709268,100,5932.22918612898,4.7787570645425,48.8360866603738,7,10
9.13118334721876,2.14918048929799,-8.57099722535213,36.3381040028916,54.723144356934,17.0978496929609,-0.349339408169726,9.4251764166109,-6.3677015133153,100,5027.27487062302,4.85178580872726,43.4261328616619,7,10
9.05186523966509,2.18676000825797,-8.24046161960746,36.0504832226211,55.6659316025858,17.1107508648477,-1.28902738319175,7.89112221143773,-6.38721313963856,100,4183.70834241468,4.94567456463787,39.2652705919748,7,10
8.96885489997665,2.22721895237456,-7.79366809553017,35.734110404306,56.6780264376118,17.1246094008371,-1.98780450662889,6.50464071233841,-6.20203763733139,97.0456711589558,3403.88333953634,5.04418901773476,36.2125788608201,7,10
8.88520380291342,2.26340234600157,-7.31924600287459,35.400772813421,57.740234908593,17.138878225467,-2.43383248824398,5.3314414962457,-5.9067170479214,93.3419201491221,2753.47617529325,5.13080595395853,34.0661743770298,7,10
8.8039611715569,2.29225090182276,-6.90058338066302,35.062509574472,58.7738815920815,17.1533327818516,-2.58338186686137,4.46675089241904,-5.57794410148682,89.5834397163557,2190.26912056264,5.19796765478856,32.5459586084097,7,10
8.72740091957111,2.3277698148752,-6.57048784551284,34.731687722272,59.0962836351842,17.1681079113328,-2.20280422557522,3.98710597865147,-4.52073982004725,85.9076413585778,1750.40835668434,5.27512588270446,31.3708151982818,7,10
8.65715084102198,2.36723431124226,-6.16845727052009,34.4178268577601,58.7698615551051,17.1839718087451,-1.44856027045125,3.96565304494487,-1.56744001135201,82.420298419557,1488.67330724211,5.35740710627218,32.3708151982818,7,10
8.59615917414736,2.35174686482921,-5.72729810210677,34.1280094295934,58.5979016224405,17.2012910428954,-0.589197435621884,4.27873783165552,1.70956001754695,79.2001047732602,1597.86327814361,5.31363127164377,33.3708151982818,7,10
8.54524750442292,2.27724911891112,-5.89974314652085,33.8749509605125,59.3451649407504,17.2194988608146,0.232853061203684,5.31054571089896,3.83730422043976,76.3883440056948,1784.13746997006,5.13663920237905,34.3708151982818,7,10
8.50368219571087,2.16757249540685,-6.74173950164879,33.6626797473898,60.9425632150482,17.2377728160405,0.975731565712067,6.97459256285248,4.94822979399049,74.0297749709978,1906.32490955581,4.88141093393032,35.3708151982818,7,10
8.4701070024394,2.04230821635204,-8.02104336695095,33.4886713626948,63.110567880973,17.2558969017667,1.63669180529035,8.99677493266302,5.42139510334766,72.0963484743865,1999.79696599962,4.59251880931261,36.3708151982818,7,10
8.44260776021642,1.93005597876837,-9.54511581272129,33.3476453201397,65.4061917166288,17.2737657968542,2.23078940977649,11.1818076180116,5.45796309366295,70.5293924459972,1982.21450239718,4.33435327314143,37.3708151982818,7,10
8.42049133072365,1.82698889694958,-10.9738577763715,33.231826777856,67.7213927896828,17.2912817906416,2.77332643287724,13.204647186148,5.15075945429845,69.242519753956,1928.83290173492,4.09794186664542,38.3708151982818,7,10
8.3991148536378,1.74633976718444,-12.3437972172081,33.1384731093809,69.834632289334,17.3083269209251,3.27836677217232,15.1171236500854,4.53795659875811,68.2052567708985,1886.33571927885,3.91277129800438,39.3708151982818,7,10
8.37578449459326,1.69838976362186,-13.4583944219079,33.0480674559271,71.2353556418921,17.3247887853257,3.76345588532041,16.7367611940803,3.63983294251818,67.2007495103009,1786.19198436532,3.8015746385729,40.3708151982818,7,10
8.35224662063911,1.67953434110077,-14.1402450546609,32.9492008015505,71.9531514168466,17.3405185616622,4.23462501210753,17.9037009399813,2.40911418322941,66.1022311283388,1689.57006622619,3.75596749604117,41.3708151982818,7,10
8.33144927516763,1.69017535681594,-14.4124892451865,32.8492447451294,71.916354671314,17.355366296716,4.69544928297415,18.647114257294,0.837838615084536,64.9916082792155,1606.25720357181,3.77663471550457,42.3708151982818,7,10
8.31484720548035,1.7268804294894,-14.2585572785288,32.7607502556905,71.1737896785539,17.3692092392907,5.1428956950619,18.9540065615029,-0.987894449333453,64.0083361743387,1543.54078909152,3.85574686619418,43.3708151982818,7,10
8.30183416882551,1.78206796821813,-13.7333237867609,32.6899877428975,69.8655180993311,17.3819850874134,5.55769989667897,18.8762194818228,-2.92701610355959,63.2220860321948,1514.46724883965,3.97635462442887,41.5947432845666,7,10
8.28857967244681,1.86453289576774,-12.9597723020033,32.6344483603749,67.9634700269999,17.3937723233728,5.91175292406854,18.5174721986822,-4.63157230115399,62.6049817819434,1418.66012913797,4.1583079681845,29.2955141028235,7,10
8.25474605816848,2.00329387486425,-11.8379660698749,32.5778111046346,65.0287455858634,17.4049610444097,6.21138982633431,17.7497189939434,-5.37400550843006,61.9756789403848,963.053578139077,4.466496352386,17.8232465329757,7,10
8.19603963794291,2.18208790515966,-10.0346078962197,32.432928643528,61.6661716354185,17.4163060169,6.53019461875357,16.245997722554,-4.46168217672954,60.3658738169776,462.170689992002,4.86393349577955,20,7,10
8.14451746600794,2.34874868374252,-7.84889039144366,32.1804726779269,58.4536790679707,17.4284833247057,6.90263879103344,14.3790850101972,-2.44135001959285,0,336.260727081082,5.23349013874025,0,7,10
8.08861159415544,2.45811083189032,-5.93322786694773,31.9577884043221,55.161444689811,17.4249754391212,7.16779881443051,12.8358666579812,-0.952127566923423,0,119.154407517198,5.47562887615678,0,7,10
8.06589607809791,2.59590723731559,-4.73264941447616,31.714955618487,49.3439197259265,17.4251530184299,7.30111668160237,11.9004482289067,0.457635853957242,0,51.7818734373253,5.78266668306253,0,7,10
8.04506850272823,2.78271610582041,-3.27733959324974,31.6159277604826,40.2026407589437,17.4357884033934,7.37644566537944,10.5784562748521,2.52979343175582,0,56.2501972851752,6.20013157935983,0,7,10
7.98607767478376,2.99788744023835,-1.39672501130497,31.5249458360151,31.2596334309259,17.4522120452067,7.41879346268968,8.7731706766844,5.26049391862682,0,66.8316147477698,6.68174585779722,0,7,10
7.93864617579031,3.22584190833289,0.652513498500184,31.2662886871124,31.0526039376784,17.4712868645215,7.44595692270423,6.76627996418949,8.32558752021401,0,126.964742008155,7.19255059755053,0,7,10
7.90189384390785,3.42929227133686,2.70362704682645,31.0572713025545,30.8814751848408,17.4915108105159,7.46466845186211,4.74232987587777,11.2260611153689,0,0,7.64885068764213,0,7,10
7.87109736766531,3.59741093813102,4.44232069960918,30.8946670482224,30.7380784994812,17.5121969056723,7.48026637523003,3.02234775225293,13.5179330820948,0,0,8.02614575427679,0,7,10
7.84496252797668,3.7095546734561,5.82037409599968,30.7579746944099,30.6163876490658,17.5330410759334,7.49621018337581,1.65989227923035,15.0982899090815,0,0,8.27785563658548,0,7,10
7.82262781210883,3.77266949632385,6.71243181124828,30.6416573397209,30.5123911983461,17.5539008399953,7.51235428447461,0.783778372127529,16.0805239724351,0,0.88069408931144,8.41944611301886,0,7,10
7.80301093070549,3.80538455191018,7.20544862155492,30.5420217653405,30.4210497166721,17.5747167256037,7.52857210583414,0.306905662919689,16.6689522664957,0,1.33195021586076,8.49272387930919,0,7,10
7.78563811404232,3.82190551415157,7.45852314871365,30.4543337714439,30.3401572046445,17.5954597611613,7.54478985311101,0.0700489571204912,17.0016165405142,0,1.47841642711818,8.52960285463937,0,7,10
7.77009786452033,3.83051562865537,7.58569340565492,30.3765381893194,30.2677976186462,17.6161180370052,7.56096721687169,-0.0409035525439094,17.1857563508718,0,1.50736114775068,8.54869966604305,0,7,10
7.75602323241403,3.83438557815368,7.65180342556403,30.3068380845492,30.2022623419541,17.636687075211,7.57708550269132,-0.0908362086923376,17.2891535683715,0,1.49816559155025,8.55714166953864,0,7,10
7.74254645632603,3.8356877043952,7.68148062262537,30.2436208789977,30.1395108438563,17.6571659187684,7.59313793784497,-0.104395119934054,17.3501949845653,36.0402319888635,1.47617519737629,8.5598124148018,20,7,10
7.92469774353846,3.57091308860424,7.69146099727931,30.1830080221997,45.1330334569306,17.6785777261774,7.91749954185093,-0.0983230594343354,17.3923835764036,35.3667558022191,76.7350031122065,7.96015127254177,20,7,10
7.99457041818244,3.1055372003971,5.60649335725134,30.9956257245244,43.0257994596524,17.7004498620577,8.26036700529988,2.31100618459959,17.4178148587505,44.395841383604,989.019831560398,6.91230201072635,20,7,10
8.04771982052353,2.6436735033292,1.6355384156023,31.3036152001732,46.57932118486,17.7217629871018,8.44832352576981,6.62482858969759,17.4146217643782,47.8179466685914,2076.08369612372,5.87715029288906,20,7,10
8.05965276265016,2.20945389131312,-2.78678868645949,31.5365375265703,52.4725858545445,17.7424093553761,8.46798948874624,11.2351122122293,16.5708525912323,50.4059725174475,2313.08005195277,4.90766298559213,20,7,10
8.03570395074232,1.85306032594903,-7.52672972102494,31.5886734018195,59.1266852884727,17.761974332145,8.35980360888311,15.9947192097712,11.2713509793659,50.9852600202167,2157.10169077179,4.11410362728177,20,7,10
7.99142818462369,1.7038340595838,-11.9916880354058,31.483980546546,64.6630441826433,17.780182259875,8.24458201649333,20.351491644289,1.5109315872636,49.8220060727337,1556.58432238561,3.78253437331718,20,7,10
7.94058251368345,1.76959308889147,-14.062076684093,31.289808226586,66.2616343675418,17.8006954349808,8.1711260180694,22.3066587005864,-5.07132682467795,47.6645358509561,801.133023074252,3.92953385568417,20,7,10
7.91100066990263,1.94657715546574,-13.1329784059466,31.0658225720734,64.3408651590026,17.8249735596389,8.1771887822768,21.304104424016,-6.78402467727977,45.175806356371,335.58033961525,4.32393208690376,20,7,10
7.90529233512666,2.16082469695956,-10.7595892740666,30.93501154491,60.3301000894597,17.846831866616,8.23230143813129,18.9367780563434,-6.70834299930112,43.7223504989997,127.089993217417,4.80128691679783,20,7,10
7.90079784130074,2.3797779892797,-8.10137689509355,30.9097269230907,56.0594083765589,17.8633911332788,8.19209019560412,16.3336783332248,-5.87704423609404,43.4414102565629,50.1761460098712,5.29036064934202,20,7,10
7.88997632448628,2.57972424606137,-5.58826908000287,30.8898092472934,51.6953413859277,17.8764136086463,7.95270640371132,13.780359275607,-4.53701362074668,43.2201027477043,140.088650044293,5.73953732230522,20,7,10
7.87844227654517,2.7510527162059,-3.44511558436102,30.8418179132739,47.939103884129,17.8879397534688,7.48956442069436,11.3978219880723,-2.84723256666257,42.686865703043,266.044108014336,6.12793446858279,20,7,10
7.87275765704635,2.86775762712254,-1.70848714949182,30.7906120875051,44.7440783991906,17.8991372100208,6.89745838048509,9.19805157018618,-1.2801298171421,42.1179120833901,506.359545028026,6.39630810268179,20,7,10
7.87558189573702,2.95231857026517,-0.572710089123632,30.7653542597972,42.6476186718646,17.9104628466315,6.30950490820283,7.47016846960872,-0.0697591973925,41.8372695533018,753.106588630159,6.59315659591992,20,7,10
7.88596926199672,3.00092581265529,0.228204332119333,30.7779045951519,41.336538895661,17.9220404467731,5.79376500175192,6.08130057608349,0.805861458883669,41.9767177239104,985.149903003147,6.70875121575194,20,7,10
7.90105229995234,3.025282869446,0.680628140508816,30.8240348017902,40.9309108951297,17.9338515209688,5.37952999818532,5.11313686124311,1.40437067533048,42.4892755754469,1141.30559240136,6.76872967951617,20,7,10
7.91815707286903,3.03605553398238,0.905221397524087,30.8909371269111,41.3521158178593,17.9458453555005,5.07884959204819,4.47430860066123,1.81950310931791,43.232634743457,1183.8326545407,6.7967747221504,20,7,10
7.93542581882411,3.0403909609226,1.00411161697133,30.9666908874063,42.3251214711859,17.9579913753189,4.92257775817382,4.07473797507686,2.14465503702883,44.0743431934038,1098.17415364615,6.80851776585372,20,7,10
7.95098756509588,3.09917201572662,1.04383359488696,31.0430460630176,42.9922934756901,17.970481754753,5.08004771552589,3.87874416328685,3.10334539173743,44.9227340335293,757.50686356286,6.93890104223423,20,7,10
7.96704553688851,3.26713710723312,1.57814793896085,31.1117465908803,42.0687786848131,17.9844133652719,5.49875222534138,3.50189977656504,6.75381708255122,45.686073232003,309.689122912764,7.31162528972686,20,7,10
7.98629019959271,3.30449728595794,3.06320388064086,31.1825318444545,41.0702790530524,18.0002478995863,5.97743447120422,2.43554834470052,10.4658824184813,46.4725760494945,573.70716274885,7.38917215027402,20,7,10
8.00277540260548,3.20181524724774,3.3855250091396,31.2672231204969,41.4110010413951,18.0175906565892,6.41170742668271,2.59190946206462,13.2226900507687,47.4135902277434,1030.67145581784,7.15238016051913,20,7,10
8.01355038347367,2.98341155894441,2.49278729996439,31.3396486630788,43.2696520547451,18.0319149672146,6.73915713569312,3.91892012671832,15.1697900601283,48.2183184786531,1455.21463338979,6.65768002050435,20,7,10
8.0171084789536,2.68223033665248,0.518263767492726,31.3869264779328,46.1481621419071,18.0421410021265,6.92066495126562,6.22089336820039,16.2345215368154,48.743627532587,1830.5412821514,5.98014076920327,20,7,10
8.00778179370186,2.37481475988865,-2.39577982081687,31.4025279732669,50.3130078637993,18.0515843852548,6.96574009155802,9.31644477208249,15.7158034619697,48.9169774807433,1939.20916557876,5.2912167383424,20,7,10
7.98803961623489,2.09606051203261,-5.64321155944793,31.3616213572777,54.7755870745576,18.0624200938113,6.90947538354391,12.608951651006,12.3336822650899,48.4624595253081,1889.3837601907,4.66815054673308,20,7,10
7.95819405163386,1.90981854509919,-8.88247413210638,31.2749142803742,59.2333224983952,18.075398155017,6.85411051310973,15.7919495156503,6.2466943131771,47.4990475597129,1626.37950872739,4.25229852210749,20,7,10
7.92668289365575,1.85658240844015,-11.238276711465,31.1435268424389,62.2169583653288,18.0920970807637,6.89010224095665,18.0923872245747,0.488686950999636,46.0391871382095,1156.84200297662,4.13307461745871,20,7,10
7.89638311051967,1.94674419363072,-11.9444166963281,31.0044041436359,62.5905875206398,18.1143306344384,7.06978702888273,18.8345189372848,-1.87941090947777,0,639.966913779744,4.33310164986259,0,7,10
7.87136422968114,2.0395445283687,-10.7574301368405,30.8702367463151,59.5665900611356,18.1217970314919,7.26374839792697,17.8272171657232,-1.90186206361903,0,182.346161470762,4.5388387889632,0,7,10
7.87298891329726,2.15357693603183,-9.57955012567379,30.7591609074082,51.4324422333173,18.127068861463,7.37386657719742,16.8432985236008,-0.578001919355643,0,59.3152425777487,4.7926723826733,0,7,10
7.87845118374833,2.32191799855408,-8.18787955874757,30.7663820422936,39.9518093295261,18.1383630558371,7.43865723235467,15.561746135945,1.96937422343296,0,76.8024696151389,5.16833527563165,0,7,10
7.82260069383325,2.49437852985371,-6.23436440105604,30.7906516531135,30.5122649283533,18.1534419005613,7.4753432697172,13.6730216334107,5.24005883479055,0,191.460293024841,5.55364800535872,0,7,10
7.7701230259376,2.66110848220684,-4.3436252660411,30.5419006601851,30.2679147769798,18.1703842455718,7.49841641700141,11.8189685357583,8.67847196636092,0,0,5.92648082477444,0,7,10
7.71976661250118,2.79515122312391,-2.6094377261158,30.3069510216376,30.0334417575178,18.1881860836127,7.51485674311823,10.1078541431172,11.7604202830031,0,0,6.22639088730437,0,7,10
7.67280884526227,2.88808140132299,-1.27503428610964,30.0803731040826,29.8147937498393,18.206368835858,7.53107687297421,8.78989102922787,14.1234012382639,0,0,6.43433540311409,0,7,10
7.62950844656299,2.95240686195589,-0.378572343982796,29.8680828292648,29.6131754348307,18.2247015483905,7.54748896390055,7.90964921695701,15.7274278900595,0,0.550067506627485,6.57824481852646,0,7,10
7.58971461016355,2.99081935782005,0.229031304192006,29.6714586543748,29.4278846180346,18.2430744164071,7.5639935288084,7.31845765970854,16.7288071061848,0,1.36132522972056,6.66411119385644,0,7,10
7.55315315382353,3.01128288592937,0.587026320052985,29.490015404218,29.257644633116,18.2614352076789,7.58051199975301,6.97696720875541,17.3178407095234,0,1.61169841295337,6.709761758857,0,7,10
7.51953774908095,3.02102400120186,0.776299983797117,29.3226780659703,29.1011222576616,18.2797592224727,7.59699816366282,6.8042120159559,17.6458866269334,0,1.65189152901323,6.731385227264,0,7,10
7.48855601223107,3.02527786409162,0.866051449882946,29.1682854683594,28.9568629490327,18.2980337969377,7.6134270643829,6.73094671377987,17.8265929540676,0,1.62563720470347,6.74071262188539,0,7,10
7.45992140768003,3.02684045063701,0.905175386829228,29.0255281881268,28.8235325203542,18.3162535545642,7.62979013222315,6.70825167755368,17.9270991068091,0,1.57846895150034,6.7440097850326,0,7,10
7.44554902332894,3.02713862994117,0.919536302338827,28.893189979578,28.7566108290404,18.3344162104848,7.64608630592835,6.71025382988432,17.9856640499582,21.0354442175331,1.55461401625055,6.74447440199156,20,7,10
7.73225237842102,2.62509404826002,0.922276064857215,28.8266220761757,52.5940306641452,18.3533918771717,7.85554437117139,6.72381024107113,16.2636374712216,20.2958008463971,76.7350154004573,5.84202472271121,20,7,10
7.74479298847136,2.19201741736891,-2.97677722164104,30.1366560889363,52.9332713297903,18.371887265484,7.98120630146644,10.8323215928124,8.52590387084859,34.851734321514,1303.6197574751,4.87312914538608,20,7,10
7.79469260243765,2.03854106742858,-7.7316370015871,30.193117488471,56.5760885861907,18.3895223509451,8.05339185165138,15.7128433030535,1.09411947993237,35.4790832052338,1301.13935182734,4.53002300662855,20,7,10
7.81435750136233,2.09151040804673,-9.59206176793765,30.4171005264253,58.1159315207805,18.4125473566456,8.18636528788761,17.645453619589,-2.30186588199223,37.9677836269479,730.612571582839,4.64705949442302,20,7,10
7.81671445380982,2.20961072261776,-8.93805190865362,30.5050734494908,57.1995635231131,18.4372686630874,8.44058799062202,17.1244171965412,-1.80537067596498,38.9452605498977,442.781224480954,4.90825975179534,20,7,10
7.81168544175177,2.31803185021732,-7.5248923917307,30.5156063316313,55.3993748551551,18.4568293935046,8.70567838198008,15.9654803823527,-1.55348583439331,39.0622925736807,366.647652060947,5.14763675048145,20,7,10
7.80358957735197,2.42465607448695,-6.27820392047227,30.4931295068811,53.2215906808174,18.47140545317,8.9233545286105,14.9838823024523,-1.72899603718264,38.8125500764564,343.40991872516,5.38333581009444,20,7,10
