Pdis,Psuc,T0,Tc,Tdis,Tret,Tsuc,Tsh,Tsup,CondFan,CprPower,Density,Cpr,Tamb,Tset
6,2.92803182339495,-66.8562457822183,-66.8562457822183,21.5510217973122,-273.15,0,66.8562457822183,-273.15,0,0,6.61608351884431,0,20,12
6.00456473233045,2.97892931152711,-1.70530256582424e-13,21.5716593574974,21.574776301916,-100.453849250925,0.00448765709217014,1.70530256582424e-13,-99.133557053823,0,0,6.73172138412651,0,20,12
6.00896435352816,3.03801649258145,0.476593738314534,21.5965522282676,21.5976715812949,-36.8246220113314,0.0103293693954924,-0.472106081222364,-31.3410345974891,0,0,6.86598495970788,0,20,12
6.01340275144759,3.08117692707388,1.02208367587639,21.6205311606286,21.6207686516549,-13.4121333442054,0.0169990896583272,-1.0117543064809,-5.5771241160017,0,0,6.96404496456633,0,20,12
6.01778955876812,3.11373388724135,1.41540733235405,21.6447079885447,21.6435972486345,-4.78795085088598,0.0242789670102184,-1.39840824269572,3.53139442724768,0,0,7.03799377945654,0,20,12
6.02208470230518,3.13900785922007,1.70930934534994,21.6685905387833,21.665948834563,-1.59973903443495,0.0320428745830554,-1.68503037833972,6.33337953399251,0,0,7.09537726968814,0,20,12
6.02627591532025,3.15889383310444,1.93584240029543,21.6919613058056,21.6877595743074,-0.409377934722556,0.0402132847490861,-1.90379952571237,6.83117483983511,0,0,7.14050271032601,0,20,12
6.03036285244144,3.17458963919626,2.11309977221498,21.7147544200034,21.7090276705795,0.0562299588878545,0.0487376374184691,-2.07288648746589,6.54589686879007,0,0,7.17609328412132,0,20,12
6.03434984043543,3.18694244157612,2.25240329873498,21.7369689113091,21.7297756395298,0.261533177855085,0.0575774445973138,-2.20366566131651,6.03701948805832,0,0,7.2040753789974,0,20,12
6.03824223913689,3.19655835428937,2.36166564135817,21.7586291652864,21.7500313733123,0.368715313512894,0.0667052422707002,-2.30408819676086,5.49602676703392,0,0,7.22582749409647,0,20,12
6.04204613655299,3.20395890731183,2.44649498966703,21.7797651057308,21.7698265534327,0.443059318456619,0.0760976405314295,-2.37978974739633,4.99381140008262,0,0,7.24253602215401,0,20,12
6.04576710993486,3.20952656604734,2.5116476727593,21.8004105300605,21.7891902034634,0.505157014973236,0.0857372229341991,-2.43555003222787,4.54667608248906,0,0,7.25507112824948,0,20,12
6.04941045403863,3.21357529974347,2.56058790465289,21.8205963842599,21.8081498768946,0.562758041917107,0.0956096595221538,-2.47485068171869,4.15560322940371,0,0,7.26414723718772,0,20,12
6.05298123559906,3.21636831261794,2.59613574427846,21.8403520104247,21.8267319406117,0.618653079390015,0.10570287095959,-2.5005260847563,3.81602473077481,0,0,7.27036332705334,0,20,12
6.05648394380261,3.21811381496487,2.62063833983194,21.8597054486169,21.8449597559849,0.673782966540102,0.116007325767384,-2.51493546887235,3.52232484526934,0,0,7.2741932686349,0,20,12
6.05992282523179,3.21899026739018,2.63594302561302,21.8786815492982,21.862855421892,0.728505589291728,0.126514874241366,-2.51993569984563,3.26886612708034,0,0,7.27604325105996,0,20,12
6.06330194723217,3.21915242278699,2.64362541903182,21.89730379603,21.8804401044766,0.782945136976082,0.137218506910585,-2.51711054479046,3.0503474745031,0,0,7.2762655165643,0,20,12
6.06662480237628,3.21872137636898,2.6450465883845,21.9155946533248,21.8977319788089,0.837141228295422,0.148112797528711,-2.50782808147392,2.86244115597322,0,0,7.27513571126548,0,20,12
6.06989478350755,3.2178052120042,2.64126867160843,21.933573430905,21.9147487009765,0.891108589631585,0.159192964510623,-2.49315587407972,2.70118591885949,0,0,7.27289986334826,0,20,12
6.07311501800963,3.21649574517422,2.63323763708212,21.9512588604627,21.9315065456358,0.944851354929654,0.170455010968851,-2.47404467257149,2.56314060228664,0,0,7.26976696923803,0,20,12
6.0762883946058,3.21487145652073,2.62175589298607,21.9686682023316,21.9480205454734,0.998387354761746,0.181895766054822,-2.45130088201722,2.44532087933692,0,0,7.26591566599365,0,20,12
6.07941758889569,3.212999556723,2.60750872415525,21.9858173943869,21.9643046240971,1.05170543931757,0.193512459625595,-2.42561295810043,2.34514075092954,0,0,7.26149893477556,0,20,12
6.08250508091436,3.21093774156294,2.59108282361819,22.0027211935775,21.9803716874126,1.10478502582731,0.205302641253013,-2.3975703639926,2.26035789064213,0,0,7.25664809527936,0,20,12
6.08555316810557,3.20873551230247,2.5729819160174,22.0193932738937,21.9962336911348,1.15763640602535,0.217264438685618,-2.36767927476438,2.18902650668724,0,0,7.25147580697151,0,20,12
6.08877890610359,3.20643257554702,2.55363844261063,22.0358462992193,22.01302017555,1.21026331151444,0.229396418138094,-2.33637400392502,2.12956744723891,0,0,7.24607243343952,0,20,12
6.09215725225638,3.204069133014,2.53339949480085,22.0532514687895,22.0306008206854,1.26266772107653,0.241697230346062,-2.30400307666275,2.08036413176512,0,0,7.24052945216547,0,20,12
6.09550448292385,3.20167774397551,2.51261719987673,22.071472598173,22.0480195433057,1.31485095955156,0.254165894379412,-2.27091996953067,2.04008933365134,0,0,7.23492094317861,0,20,12
6.09882373636589,3.19928286369366,2.49157718648672,22.0895183753223,22.0652926746664,1.3668141621842,0.266801749648039,-2.23741129210731,2.00773176534562,0,0,7.22930254256481,0,20,12
6.10211627126694,3.19690743707354,2.47049436497275,22.1074059251815,22.0824267648612,1.41855860290474,0.279604245501105,-2.20369261532471,1.98232807077267,0,0,7.22372644270928,0,20,12
6.10538299854798,3.19457113568433,2.44957083053646,22.1251422199079,22.0994265542507,1.47008563594812,0.292572990376641,-2.16996658503535,1.96303995582122,0,0,7.2182373830535,0,20,12
6.10862420666924,3.19229067628907,2.42898028105611,22.1427323465621,22.1162935439588,1.52139669745463,0.305707727269692,-2.13640729067947,1.94913767865739,0,0,7.2128733759316,0,20,12
6.11184050292201,3.19008012482981,2.40887073430332,22.1601780328652,22.1330308942814,1.57249329644037,0.319008308458763,-2.10316300703363,1.93998575858654,0,0,7.20766639924108,0,20,12
6.11503210036744,3.18795136505353,2.38936712235579,22.1774827174796,22.1496397139717,1.62337700287952,0.332474675236824,-2.07035881389703,1.935030210646,0,0,7.20264346328611,0,20,12
6.11819956090004,3.18591434798225,2.37057534779035,22.1946477124709,22.1661229270841,1.67404943537247,0.346106840438722,-2.03810067255353,1.93378777282203,0,0,7.19782717908827,0,20,12
6.12134308745669,3.18397739545173,2.35258441798157,22.2116762015528,22.1824815896861,1.72451224930552,0.359904874525228,-2.00647757754285,1.93583691205902,0,0,7.1932364494714,0,20,12
6.12446322940553,3.18214720794177,2.33546906627834,22.2285694335818,22.1987185606458,1.77476712874028,0.373868889077187,-1.97556419175311,1.94080970304572,0,0,7.18888648774053,0,20,12
6.12756019073798,3.18042921364639,2.31928976919954,22.2453305149225,22.2148349015184,1.82481577954326,0.387999022981319,-1.94542088012236,1.94838432478718,0,0,7.18478961211263,0,20,12
6.13063448382458,3.17882783252948,2.30409578612108,22.2619606917502,22.2308332786394,1.87465992047231,0.402295435151871,-1.91609676313976,1.95827905796023,0,0,7.18095584662384,0,20,12
6.13368631551904,3.17734711505334,2.28992745839594,22.2784628622258,22.2467147684591,1.92430127681274,0.416758301819527,-1.88763202324407,1.9702480801551,0,0,7.1773943735917,0,20,12
6.13671617991156,3.1759911323362,2.27682183420046,22.2948382800212,22.2624819421839,1.9737583027237,0.431387985433219,-1.86006353238093,1.98407835923348,0,0,7.17411441840717,0,20,12
6.13972428066036,3.17476264803844,2.26481610667014,22.3110897362594,22.2781358596347,2.02302156813414,0.446184704942709,-1.83342812123692,1.99958535511422,0,0,7.17112223499918,0,20,12
6.14271108361559,3.1736628115741,2.25393583885921,22.3272184599539,22.2936789450588,2.07207234977608,0.461148514850038,-1.8077511339165,2.01660639706603,0,0,7.16842040927128,0,20,12
6.1456767924157,3.17269192830405,2.24419221878645,22.3432270823551,22.3091122581747,2.12092228122407,0.476279611597363,-1.78304370393641,2.03499623093001,0,0,7.16600960623141,0,20,12
6.14862184732049,3.17184978262511,2.23558886050643,22.3591168252756,22.3244380900591,2.16957637514287,0.491578162651535,-1.75930924890906,2.05462605132072,0,0,7.16388930697354,0,20,12
6.15154644848517,3.17113573573445,2.22812465693545,22.3748901749148,22.3396574823042,2.21803742646784,0.507044302320196,-1.73654649428391,2.0753822886432,0,0,7.16205803113065,0,20,12
6.15445101496952,3.17054878812238,2.22179464148513,22.3905483277117,22.3547726156635,2.26630748117424,0.522678128020459,-1.71475033916494,2.09716446031535,0,0,7.1605134791108,0,20,12
6.15733574053672,3.17008763894493,2.21659053986548,22.4060936489001,22.3697844984654,2.31438832471088,0.538479697720106,-1.69391241184502,2.11988333793437,0,0,7.15925266719599,0,20,12
6.16020102395618,3.16975072636237,2.21250129635303,22.4215272943574,22.3846952058743,2.36228164415775,0.554449027616556,-1.67402159863292,2.14345975033933,0,0,7.1582720193526,0,20,12
6.16304705237669,3.16953625360408,2.20951343299379,22.4368515137451,22.3995057117973,2.40998908178307,0.57058609033038,-1.65506440537723,2.16782340703202,0,0,7.15756742657846,0,20,12
6.16587420514837,3.16944223541978,2.20761128353905,22.452067421577,22.4142179903426,2.4575122525855,0.586890813162483,-1.63702519320867,2.19291165684848,0,0,7.15713435256413,0,20,12
6.1686826627956,3.16946653923774,2.2067774092472,22.4671771570949,22.4288329809448,2.50485274985726,0.603363077236679,-1.61988659608471,2.21866853167529,0,0,7.15696792729387,0,20,12
6.17147278601157,3.169606905707,2.20699296861216,22.4821817937647,22.4433525606224,2.55201214690703,0.620002716687793,-1.60362989137548,2.24504391324564,0,0,7.15706299378144,0,20,12
6.17424474882936,3.16986097128064,2.2082379048444,22.4970833649467,22.4577776350299,2.59899199751692,0.636809518350447,-1.5882351881566,2.27199279815295,0,0,7.15741415942808,0,20,12
6.17699889405307,3.17022628947605,2.21049115187429,22.5118829041195,22.4721099880924,2.64579383551603,0.653783221376955,-1.57368163352385,2.29947465448208,0,0,7.15801584436605,0,20,12
6.17973538941814,3.17070034953035,2.21373082890267,22.5265823432987,22.4863504926921,2.69241917524607,0.670923517385802,-1.55994760752571,2.32745286749025,0,0,7.15886232386783,0,20,12
6.18245456062878,3.17128059241071,2.21793441200151,22.5411826773374,22.5005008437675,2.73886951245777,0.688230050513312,-1.54701089461571,2.35589425933972,0,0,7.15994776473917,0,20,12
6.1851565693405,3.17196442518582,2.22307888231131,22.5556857415282,22.5145618825615,2.78514632400356,0.705702417927284,-1.534848831798,2.38476867023928,0,0,7.16126625797667,0,20,12
6.18784172496209,3.17274923331052,2.22914085967017,22.5700924935679,22.5285352192124,2.83125106781688,0.723340170195399,-1.52343844174288,2.41404859567433,0,0,7.16281184668055,0,20,12
6.19051018329456,3.17363239159062,2.23609671763495,22.5844046767007,22.5424216644965,2.87718518303205,0.74114281207676,-1.51275654743955,2.44370887012923,0,0,7.16457855095903,0,20,12
6.1931622382591,3.17461127305435,2.24392268664576,22.5986232129571,22.5562227479565,2.92295009029982,0.759109803134947,-1.502779874569,2.47372639254337,0,0,7.1665603880755,0,20,12
6.19579804002905,3.1756832645899,2.25259493843356,22.6127497581975,22.5699392510822,2.96856360138474,0.777240717957227,-1.49348513529861,2.50408025174517,0,0,7.16875140581286,0,20,12
6.19841786784053,3.17684577471681,2.26208973011273,22.6267852002653,22.5835726269965,3.01401633180456,0.795534930615474,-1.48484901215551,2.53475161304175,0,0,7.17114570437146,0,20,12
6.20102186646551,3.17809622071461,2.27238347825357,22.6407311122459,22.5971236290811,3.05928929707522,0.81399160872536,-1.4768485476381,2.56572230192842,0,0,7.17373740720652,0,20,12
6.20361030123621,3.17943203434355,2.28345264993396,22.654588349254,22.6105936381037,3.10439353230004,0.832610039269355,-1.4694610412086,2.59697450607342,0,0,7.17652066963026,0,20,12
6.20618331173637,3.18085068103818,2.29527381830269,22.6683584060711,22.6239833804472,3.1493338985872,0.851389473478037,-1.46266377903333,2.62849195383234,0,0,7.17948972449437,0,20,12
6.20874115014861,3.1823496635892,2.30782383703223,22.6820421064539,22.6372941684498,3.19411265299965,0.870329120022745,-1.45643436355419,2.66025979019076,0,0,7.1826388906351,0,20,12
6.2112839510813,3.1839265231138,2.32107987706172,22.6956408711841,22.6505267026029,3.23873146210298,0.889428150753588,-1.45075075703897,2.69226419691637,0,0,7.18596257498964,0,20,12
6.2138119542974,3.18557884041794,2.33501943906634,22.7091554940138,22.6636822306137,3.28319173567894,0.908685701026855,-1.44559128831276,2.72449232132044,0,0,7.18945527567578,0,20,12
6.21632528539649,3.18730424064306,2.34962036913112,22.7225873258782,22.6767614060926,3.32749478109378,0.928100870649871,-1.44093466810426,2.75693183769653,0,0,7.1931115925226,0,20,12
6.21882418124954,3.1891003890838,2.36486090316703,22.7359371093116,22.6897654616972,3.37164186442334,0.947672726236988,-1.43676003251716,2.78957107280763,0,0,7.19692621752937,0,20,12
6.22130876243769,3.19096499737664,2.38071963305134,22.7492061762644,22.7026950249224,3.41563422824936,0.967400300837539,-1.43304690681435,2.82239895841315,0,0,7.20089394891575,0,20,12
6.22377924620167,3.19289582900929,2.39717556414348,22.7623952394312,22.7155512262715,3.45947309586154,0.987282596263526,-1.42977526330594,2.85540498788862,0,0,7.20500970359092,0,20,12
6.22623575366322,3.19489069186676,2.41420816644006,22.7755055231071,22.7283346960525,3.50315967515439,1.0073185842337,-1.42692557017654,2.88857929462853,0,0,7.20926850019866,0,20,12
6.22867849043283,3.19694744303066,2.43179731109365,22.7885377398635,22.7410465042461,3.54669515958767,1.0275072074827,-1.42447872685995,2.92191244545876,0,0,7.21366546999092,0,20,12
6.23110757442243,3.19906398870427,2.4499233148639,22.8014930490579,22.7536872644565,3.59008072864384,1.04784738114557,-1.4224161073812,2.95539544642548,0,0,7.21819585662786,0,20,12
6.23352320104535,3.20123828429676,2.46856694131202,22.8143721433776,22.7662579935993,3.63331754817034,1.06833799388784,-1.42071956016645,2.9890196200883,0,0,7.22285501634274,0,20,12
6.2359254841705,3.20346833439827,2.48770940319469,22.8271761250545,22.7787592842391,3.67640677068266,1.08897790925317,-1.41937140930685,3.0227766158082,0,0,7.22763841785652,0,20,12
6.23831460929373,3.20575219220112,2.50733236370212,22.8399056626288,22.7911921016817,3.71934953564511,1.109765966758,-1.41835445444895,3.05665858472372,0,0,7.23254164103802,0,20,12
6.24069068600219,3.20808796027302,2.52741793263868,22.852561802886,22.8035570162098,3.76214696973636,1.13070098320242,-1.41765196588068,3.0906580904927,0,0,7.23756037863144,0,20,12
6.24305389190383,3.21047379058308,2.54794867432247,22.8651451891076,22.8158549520813,3.80480018712541,1.15178175374911,-1.41724769112005,3.12476794018283,0,0,7.24269043629016,0,20,12
6.24540433317027,3.21290788326525,2.56890760872994,22.8776568235678,22.8280864618047,3.84731028972277,1.17300705320071,-1.41712585498084,3.15898119235891,0,0,7.24792772974146,0,20,12
6.2477421794638,3.21538848618452,2.59027820139414,22.8900973290143,22.8402524282892,3.88967836743473,1.19437563702587,-1.41727114819344,3.19329116922825,0,0,7.25326828377746,0,20,12
6.25006753331883,3.21791389636562,2.6120443602257,22.9024676630635,22.8523533851155,3.93190549840034,1.21588624260301,-1.41766872319982,3.22769144727624,0,0,7.25870823547176,0,20,12
6.2523805568066,3.22048246265031,2.63419044853083,22.9147684268845,22.8643901756898,3.97400890923069,1.23753774737634,-1.41830420592783,3.26217621814789,0,0,7.26424383804264,0,20,12
6.25468134897363,3.22309258633608,2.65670130860548,22.927000535467,22.8763633154419,4.01597904947329,1.2593287472107,-1.41916356122914,3.29674032666225,0,0,7.26987146804166,0,20,12
6.2569700647074,3.2257427248778,2.67956226743496,22.9391645693148,22.8882736103944,4.05779692178913,1.28125709554234,-1.42023352022426,3.33137809888188,0,0,7.27558764005612,0,20,12
6.25924679974316,3.22843138616054,2.70275916904365,22.9512614030903,22.9001215587457,4.0994730970807,1.30332029348068,-1.4215020735013,3.36608325255827,0,0,7.28138898839884,0,20,12
6.26151170217093,3.23115711995278,2.72627832414327,22.9632915976821,22.9119079311445,4.14101207180045,1.32551579845244,-1.42295803066258,3.40085009736293,0,0,7.2872722434917,0,20,12
6.26376486457954,3.23391851673287,2.75010643521347,22.9752559896032,22.9236332094158,4.18241578585491,1.34784106432289,-1.42459063676102,3.43567354707568,0,0,7.29323422864713,0,20,12
6.26600642862863,3.23671420637219,2.77423058616137,22.9871551211065,22.9352981307451,4.22368560310775,1.37029354127787,-1.42638952183847,3.47054879315846,0,0,7.29927185707358,0,20,12
6.26823648391714,3.23954285827721,2.79863823067552,22.9989897926226,22.946903161398,4.26482264032751,1.3928706714957,-1.42834468939765,3.50547134221671,0,0,7.30538213225053,0,20,12
6.27045516602265,3.24240318033013,2.82331719326305,23.0107605286979,22.9584490069098,4.30582792001911,1.41556988564395,-1.43044652176735,3.54043675132743,0,0,7.31156214556497,0,20,12
6.27266256170052,3.24529391878059,2.84825565972699,23.0224680956392,22.9699361187481,4.34670242834619,1.43838860012568,-1.43268577408304,3.5754405440864,0,0,7.31780907609687,0,20,12
6.27485880077636,3.24821385720442,2.87344217588725,23.0341130011543,22.9813651725156,4.38744713298144,1.46132421453956,-1.43505357576157,3.61047844417834,0,0,7.32412018828413,0,20,12
6.27704396729913,3.25116181576168,2.89886563811245,23.0456959792808,22.9927366055958,4.42806298921755,1.48437410960332,-1.4375414235729,3.64554640985966,0,0,7.33049283026118,0,20,12
6.27921818565506,3.25413665034611,2.92451528642351,23.0572175217017,23.0040510652851,4.46855094218307,1.50753564518726,-1.44014117682019,3.68064055104333,0,0,7.33692443194917,0,20,12
6.28138153731536,3.25713725182947,2.950380696617,23.0686783319389,23.0153089755533,4.50891192765607,1.53080615879878,-1.44284505142974,3.7157571221976,0,0,7.34341250335618,0,20,12
6.28353414152247,3.26016254519151,2.97645177318361,23.0800788864141,23.0265109569283,4.549146872459,1.55418296413683,-1.44564561438483,3.75089251146977,0,0,7.34995463261683,0,20,12
6.28567607729078,3.26321148875237,3.00271874120654,23.0914198597908,23.037657420595,4.58925669466976,1.57766335006494,-1.44853577706971,3.78604323565321,0,0,7.35654848425899,0,20,12
6.28780745899822,3.26628307330946,3.02917213912929,23.1027017139461,23.0487489617669,4.62924230380821,1.60124457963298,-1.45150878906435,3.82120593607885,0,0,7.3631917972529,0,20,12
6.28992836331617,3.2693763213609,3.05580281067546,23.1139250962494,23.0597859794358,4.66910460097336,1.62492388949516,-1.45455823104248,3.85637737440783,0,0,7.36988238325202,0,20,12
6.29203890002167,3.27249028625399,3.08260189750604,23.1250904547082,23.0707690448727,4.70884447899749,1.64869848936877,-1.45767800801087,3.89155442927932,0,0,7.37661812466268,0,20,12
6.29413914355044,3.27562405140902,3.10956083121636,23.1361984108731,23.0816985454352,4.74846282257016,1.67256556187971,-1.46086234184759,3.92673409245083,0,0,7.38339697288019,0,20,12
6.29622919932742,3.27877673086558,3.13667132597766,23.1472493995179,23.0925750297463,4.78796050838133,1.69652226246723,-1.46410576409795,3.96191346672225,0,0,7.39021694952405,0,20,12
6.29830913965407,3.28194746696221,3.16392538260266,23.158244017766,23.103398874057,4.82733840523844,1.72056571972075,-1.46740312013543,3.99708964042696,0,0,7.39707614116371,0,20,12
6.30037906583783,3.28513542722912,3.19131526780052,23.1691826877579,23.1141706055632,4.86659737420575,1.74469303574176,-1.47074954807977,4.032259784735,0,0,7.40397269225984,0,20,12
6.30243904448981,3.28867054909789,3.2188334867036,23.180065983501,23.124890570904,4.90573826184601,1.76890098806274,-1.47414045096184,4.06739391296878,0,0,7.41165505984557,0,20,12
6.30448917721889,3.29265819880221,3.2493244383175,23.1908942958758,23.1355592988437,4.94476196547174,1.79318989419642,-1.48042345025476,4.10275300971421,0,0,7.42036216061054,0,20,12
6.30652953658206,3.2967927862391,3.28368835373004,23.2016681990804,23.1461771669633,4.98371726949756,1.81756190525562,-1.49049845953363,4.13876463757225,0,0,7.42940071606376,0,20,12
