Pdis,Psuc,T0,Tc,Tdis,Tret,Tsuc,Tsh,Tsup,CondFan,CprPower,Density,Cpr,Tset,Tamb
9.48461715705673,2.73068621281817,-1.91047100753372,37.4356361507526,60.0758790301329,18.096028387886,11.6775340496414,13.5880145105174,7.00193616019482,100,4214.66011115929,6.03563637949633,88.7062875232027,7,10
9.48612849319489,2.7306931725897,-1.91048271474682,37.4356329067813,60.083542398835,18.0960133321711,11.677527202594,13.5880167643882,7.0019316208261,80,4214.75725999351,6.03565191509659,88.7062946123695,7,10
9.49587032762073,2.73082934535076,-1.91041348952103,37.4414721520671,60.1306431392713,18.0959987472733,11.6775684019063,13.5879406921151,7.00214914322987,80,4216.78257071802,6.03595394213172,88.7063176699659,7,10
9.51313093298612,2.7313351191711,-1.90905907728336,37.4790942560228,60.2088067417735,18.0959860451443,11.6776818247532,13.5866274791897,7.00325851654162,80,4221.68784346399,6.03707617214939,88.7067893231588,7,10
9.53386768993622,2.73229917655618,-1.90402896555122,37.5456821000186,60.2954050940687,18.0959688375142,11.6775398513495,13.5817107903044,7.00568411209025,80,4228.79411057197,6.03921922815274,88.7090666508812,7,10
9.55554589173799,2.73357423042764,-1.89444303856965,37.6255603892037,60.3795076125053,18.0959118238809,11.6765004556055,13.5719828899192,7.00894289829131,80,4237.68668667588,6.04206306011975,88.7140226693177,7,10
9.57678990697003,2.73496204665341,-1.88176877825236,37.7089258181483,60.4575072802181,18.0957598984798,11.6738875192884,13.5582692338579,7.01215637680741,80,4247.88927380375,6.04517483781699,88.7207050892758,7,10
9.59674089573777,2.73630190765683,-1.86797881762891,37.7904839219246,60.5284562844961,18.0954886188878,11.6692979973964,13.5418663369173,7.01463803014303,80,4258.61002934282,6.04820204765709,88.7273543105709,7,10
9.61477256833412,2.73750182338615,-1.85467047710961,37.8669543873464,60.5917724028671,18.0951472336864,11.6626326965391,13.523968474506,7.01628812623738,80,4268.95712387315,6.05094147001478,88.7325821967247,7,10
9.63112370972288,2.73854477954878,-1.84275642296041,37.9359656755572,60.6495799921947,18.0947765870314,11.6546106053773,13.5053891194995,7.01743254156133,80,4278.6047440315,6.05334734693127,88.7361735747489,7,10
9.64566287939217,2.73942784979909,-1.83240410115059,37.9984612501868,60.7019226126906,18.0944526762623,11.6456774016312,13.4870147065279,7.01849422232311,80,4287.15810995921,6.05540822958298,88.7387721390762,7,10
9.65848822732327,2.74014642230644,-1.82364117270942,38.053964443836,60.7495963342112,18.0942092218791,11.6365091246984,13.4693185743406,7.01982177302602,80,4294.5814504746,6.05710635565711,88.7412245209854,7,10
9.6697820263998,2.74069727933438,-1.81651220306975,38.1028730269221,60.7935496368526,18.0940300798084,11.6277023055261,13.4530213277682,7.02146414485469,80,4300.99403748062,6.05842793191461,88.7442354024551,7,10
9.67967648018531,2.74107568730211,-1.81104811695553,38.1459008063183,60.8344392648755,18.0938794098156,11.619735172566,13.4387504224816,7.02327806367157,80,4306.500768049,6.05935710609932,88.7479094969805,7,10
9.68782252869091,2.74125900442956,-1.80729508578156,38.1835662890495,60.8711619827145,18.0937464844909,11.6135740183751,13.4270302583475,7.02504433557311,80,4310.69002081503,6.05983281708327,88.7519629334989,7,10
9.69538482078008,2.74132598169757,-1.80547709930414,38.2145543864277,60.9073585185757,18.093570510286,11.6081817202623,13.4190511176792,7.02666679126384,80,4314.73789960065,6.06004152575524,88.7559548385195,7,10
9.70190369788171,2.74125501252274,-1.80481289795341,38.243304335795,60.9417658897634,18.0933711130725,11.6044724745214,13.4129946182157,7.02814300338355,80,4317.79771671224,6.05992506283281,88.7596892603732,7,10
9.70730705281064,2.74107601613761,-1.80551668671069,38.2680739763383,60.9733810714816,18.0931965840227,11.6030022933829,13.4099891612321,7.02954962860002,80,4319.92424279989,6.05954371800667,88.7631584293125,7,10
9.7120157739203,2.74081987277461,-1.80729182458117,38.2885955240146,61.0034134259179,18.0930301625089,11.6031451657558,13.4102941179641,7.03090172057301,80,4321.59620154357,6.05897305486301,88.766515161306,7,10
9.71610698375575,2.7404990844413,-1.80983219765972,38.3064719130417,61.0320052118117,18.0928699440931,11.6048585142742,13.4129773634155,7.03220010082157,80,4322.81414115427,6.05824132778266,88.7697886909159,7,10
9.7196499652144,2.74012798890264,-1.81301396328041,38.3219986752251,61.0591666004153,18.0927164734472,11.6080550243178,13.4178724775546,7.03343337903061,80,4323.6236767473,6.05738136885064,88.7729796071803,7,10
9.72270710160378,2.73972089819504,-1.81669506316507,38.3354408631357,61.0848564133172,18.0925707055355,11.6126062746358,13.4247500874828,7.03458229833734,80,4324.08487630106,6.05642641032848,88.7760636279398,7,10
9.72533476039284,2.73929169173012,-1.82073366076833,38.3470367834141,61.1090131095053,18.0924338258248,11.6183521685301,13.4333399354041,7.03562781915201,80,4324.25778680474,6.05540907445225,88.7790001531226,7,10
9.7275839845026,2.7388535768451,-1.82499216154667,38.3570014799978,61.131568864144,18.0923074421634,11.6251111476881,13.4433443300767,7.03655663101995,80,4324.19806146702,6.05436072681869,88.7817485473534,7,10
9.72950100755171,2.73841875593569,-1.82933958025666,38.3655294587297,61.1524356507533,18.0921935222553,11.6326892545334,13.4544507279448,7.03736267933778,80,4323.95453583659,6.05331063538975,88.7842793875504,7,10
9.73126056628942,2.73797395729971,-1.83365484274941,38.3727967222384,61.1723665859224,18.0920698905876,11.6406300243461,13.4663440972828,7.0380422424326,80,4323.68974437108,6.05223438589509,88.7865777244759,7,10
9.73261603326427,2.73757823744095,-1.83806967289712,38.3794661067115,61.1894729403171,18.0919879746576,11.6493371101978,13.4786996972432,7.03859122390611,80,4323.09360982714,6.05125869771049,88.7886332150312,7,10
9.73375588038422,2.73721486220874,-1.84199783834356,38.3846032153885,61.2047758915955,18.0919283622617,11.658269329283,13.4913349485414,7.0390536252691,80,4322.50460059585,6.05035239771919,88.7904346548499,7,10
9.7347108246779,2.73688832879218,-1.84560531601187,38.3889227268641,61.2183277221294,18.0918867466085,11.6672412122474,13.5038746452949,7.03941514885111,80,4321.91693655706,6.04952753005814,88.7920691009987,7,10
9.73550880984744,2.73660231533604,-1.84884735431172,38.3925412469557,61.2301708985818,18.0918607768864,11.6760820097492,13.5160885665591,7.03967059395609,80,4321.35132393257,6.0487941541995,88.7935053637184,7,10
9.73617475256367,2.73635967993559,-1.85168732873655,38.3955648057791,61.2403552038822,18.0918496776125,11.6846391850896,13.5277693384857,7.03982429946797,80,4320.82697941738,6.04816030458184,88.7947305522546,7,10
9.73673076031247,2.73616211509079,-1.85409675952542,38.3980879145168,61.2489457215512,18.0918534694762,11.6927809904615,13.538735944615,7.03988766413266,80,4320.36003220113,6.04763119510498,88.7957512117354,7,10
9.73719632935454,2.73600997711372,-1.85605874993547,38.4001944049122,61.2560251342597,18.0918722163471,11.7003975296674,13.5488397403969,7.03987530321916,80,4319.96358941544,6.04720882906871,88.7965884781408,7,10
9.73758852173553,2.73590229302662,-1.85756968652504,38.4019581898654,61.2616931274377,18.0919055582596,11.7074007873129,13.5579672161924,7.03980188109415,80,4319.64779090141,6.0468920147682,88.7972703687628,7,10
9.73792212615672,2.73583691115516,-1.85863917479099,38.403443941902,61.2660640071516,18.0919525822175,11.7137241634445,13.5660399621039,7.03968050387903,80,4319.41961075101,6.04667670562988,88.7978253581353,7,10
9.73820981066779,2.73581072888336,-1.85928854509899,38.4047077083803,61.2692633505842,18.0920119349534,11.7193217966112,13.5730127085435,7.03952249799903,80,4319.28265151873,6.04655651392672,88.7982790747862,7,10
9.73846227451502,2.73581993360437,-1.85954858979943,38.4057974941071,61.2714243712073,18.0920820322776,11.7241677135407,13.5788703864106,7.03933790569192,80,4319.2371549218,6.04652325556641,88.7986538037833,7,10
9.73868840347542,2.73586021790499,-1.85945716745601,38.4067538395469,61.2726844495654,18.0921612491856,11.7282547271827,13.5836248809968,7.03913605388823,80,4319.28028588078,6.04656744029797,88.7989694573275,7,10
9.73889542973316,2.73592695759785,-1.85905706195746,38.4076104113456,61.2731820263424,18.0922480370967,11.7315930087037,13.5873117891402,7.03892584327144,80,4319.40661434617,6.04667868290247,88.7992447088405,7,10
9.73908909365749,2.7360153588137,-1.85839421029664,38.4083946094141,61.2730538688186,18.0923409691395,11.7342083242506,13.5899872190003,7.03871570846621,80,4319.60867359898,6.04684604930152,88.7994975658728,7,10
9.73927380715777,2.73612058570873,-1.8575162378358,38.4091281807603,61.2724326632546,18.0924387422803,11.7361399953472,13.5917245620864,7.03851338066983,80,4319.87749746913,6.04705836262726,88.7997452738232,7,10
9.73945281417036,2.73623787709402,-1.85647118663695,38.4098278389743,61.2714448723866,18.0925401672895,11.7374386804167,13.5926111819842,7.03832562138444,80,4320.20308895775,6.04730448665151,88.8000038127008,7,10
9.7396283469566,2.73636265437505,-1.85530635457047,38.4105058726386,61.2702088514018,18.0926441654449,11.7381640804158,13.5927450349872,7.03815804112344,80,4320.57481633492,6.04757359075958,88.8002873295674,7,10
9.739801776695,2.73649061857492,-1.85406722159382,38.411170737722,61.2688332462002,18.0927497765333,11.7383826540942,13.5922313020096,7.03801503925723,80,4320.98175494022,6.04785539059357,88.8006077407026,7,10
9.7399737571784,2.73661783260465,-1.85279648532543,38.4118276282641,61.2674157111437,18.0928561733996,11.7381654053593,13.5911791394196,7.03789984225961,80,4321.41299382076,6.04814035516343,88.800974580143,7,10
9.74014436055221,2.73674078572744,-1.85153324394258,38.4124790208712,61.2660419740202,18.0929626756543,11.7375857857393,13.5896986493019,7.0378145958453,80,4321.85791702263,6.04841987317477,88.8013950505849,7,10
9.74031320404723,2.73685643910535,-1.85031235657613,38.4131251890142,61.2647852552138,18.0930687571401,11.7367177432421,13.5878981423154,7.03776047255604,80,4322.30645877825,6.04868637575843,88.8018741870918,7,10
9.74047956670024,2.73696225317086,-1.84916399205235,38.4137646831715,61.2637060275953,18.0931740453767,11.735633943647,13.5858817352944,7.03773777422322,80,4322.74932556987,6.04893341695996,88.8024150554213,7,10
9.74064249518338,2.73705619867838,-1.84811335840698,38.4143947730104,61.2628520885195,18.093278314079,11.7344041872525,13.583747302054,7.03774602592034,80,4323.1781775693,6.04915571584672,88.8030189427182,7,10
9.74080089806948,2.73713675368108,-1.84718059455662,38.4150118482822,61.2622589080378,18.0933814711436,11.7330940410571,13.5815847818091,7.03778406656033,80,4323.58576474246,6.0493491649909,88.8036855333013,7,10
9.74095362812781,2.73720288854217,-1.84638080167099,38.4156117758823,61.2619502153055,18.0934835443757,11.7317637012669,13.5794748427281,7.03785014260762,80,4323.96601705616,6.04951080983885,88.8044130798409,7,10
9.7410995525184,2.73725404082903,-1.84572419317601,38.4161902115491,61.2619387855509,18.0935846664345,11.7304670944533,13.5774878944429,7.03794200788047,80,4324.31409142725,6.04963880297029,88.8051985830825,7,10
9.7412376110098,2.73729008171413,-1.8452163449553,38.4167428657019,61.2622273910991,18.093685059639,11.7292512183592,13.5756834394086,7.03805702834552,80,4324.62637989257,6.04973233683689,88.8060379862313,7,10
9.74136686256675,2.73731127542971,-1.84485852958039,38.4172657238996,61.2628098804247,18.0937850207685,11.7281557164058,13.5741097479396,7.0381922881121,80,4324.90048400997,6.04979155847491,88.8069263817906,7,10
9.74148652084024,2.73731823332575,-1.84464811920435,38.4177552232377,61.2636723495883,18.0938849058554,11.7272126739404,13.5728038356102,7.03834469228946,80,4325.13516040022,6.04981746976222,88.8078582230788,7,10
9.74159597924718,2.73731186411177,-1.84457904175935,38.4182083867077,61.2647943710046,18.093985115059,11.7264466195174,13.5717917156997,7.03851106318342,80,4325.33024204696,6.04981181691293,88.8088275314597,7,10
9.74169482656745,2.73729332185336,-1.84464227480987,38.4186229181249,61.2661502463287,18.094086077859,11.7258747109071,13.5710888943273,7.03868822766782,80,4325.48653984104,6.04977697292354,88.809828091921,7,10
9.74178285351826,2.73726395321041,-1.84482636152404,38.4189972611479,61.2677102498263,18.0941882389069,11.7255070829171,13.5707010724311,7.03887309469769,80,4325.60572871917,6.04971581652781,88.8108536323786,7,10
9.74186005192863,2.73722524528983,-1.84511793406733,38.4193306241319,61.2694418368363,18.0942920448749,11.7253473323594,13.5706250169844,7.03906272262049,80,4325.69022294465,6.0496316109851,88.8118979843845,7,10
9.74192660732477,2.73717877531545,-1.84550223085051,38.4196229769672,61.271310791262,18.0943979325759,11.7253931144534,13.5708495632099,7.03925437620336,80,4325.74304492107,6.04952788566154,88.8129552243255,7,10
9.74198288583381,2.7371261631373,-1.84596359574795,38.4198750229731,61.2732822905367,18.09450631854,11.7256368246862,13.5713567102013,7.03944557324729,80,4325.76769164679,6.04940832296498,88.8140197947339,7,10
9.74202941661915,2.73706902742555,-1.84648594918337,38.4200881492881,61.2753218718606,18.0946175901335,11.7260663404765,13.5721227738696,7.03963412077752,80,4325.76800264095,6.04927665279905,88.815086605232,7,10
9.74206687088921,2.73700894622863,-1.84705322272129,38.4202643603445,61.2773962868714,18.0947320982598,11.7266657980648,13.5731195631978,7.03981814079282,80,4325.74803264372,6.0491365563207,88.8161511128753,7,10
9.74209603848513,2.7369474224082,-1.84764975043629,38.4204061983792,61.2794742357747,18.0948501516296,11.7274163816364,13.5743155485011,7.03999608582274,80,4325.71193187102,6.04899158039684,88.8172093816361,7,10
9.74211780299331,2.73688585430634,-1.84826061197469,38.4205166547799,61.2815269756662,18.0949720125687,11.7282971037556,13.5756769936111,7.04016674477407,80,4325.66383605004,6.04884506378343,88.818258121323,7,10
9.74213311625366,2.73682551184642,-1.8488719237709,38.4205990758517,61.2835288012619,18.0950978943112,11.7292855586063,13.5771690275265,7.04032923980361,80,4325.60776794927,6.04870007567989,88.8192947067112,7,10
9.7421429730469,2.73676751812163,-1.84947107641034,38.4206570662975,61.2854573994899,18.095227959703,11.7303586321838,13.5787566350166,7.04048301514143,80,4325.54755162256,6.04855936695532,88.8203171781968,7,10
9.74214838664909,2.73671283638783,-1.85004691757183,38.4206943933764,61.287294082257,18.0953623212206,11.7314931563502,13.5804055497557,7.04062781893515,80,4325.48674014286,6.0484253340059,88.8213242256916,7,10
9.74215036584041,2.73666226225313,-1.85058988136285,38.420714894348,61.2890239042419,18.0955010421856,11.7326664964625,13.5820830377131,7.04076367926075,80,4325.42855718658,6.04829999489612,88.822315157798,7,10
9.74214989385133,2.73661642074772,-1.85109206607711,38.4207223894192,61.2906356746724,18.0956441390355,11.7338570650242,13.5837585625396,7.04089087548346,80,4325.3758524598,6.04818497716294,88.8232898584819,7,10
9.74214790962567,2.73657576786742,-1.851547263501,38.4207206020267,61.2921218737185,18.0957915844993,11.7350447564432,13.5854043285252,7.04100990614546,80,4325.33107062089,6.04808151643416,88.8242487335685,7,10
9.74214529167782,2.73654059611194,-1.85195094378145,38.4207130878906,61.2934784854031,18.095943311514,11.736211300437,13.5869957002246,7.04112145454161,80,4325.29623307309,6.04799046482249,88.8251926493978,7,10
9.74214284472405,2.73651104348722,-1.85230020060169,38.4207031738871,61.2947047597659,18.0960992177157,11.7373405338854,13.5885115010387,7.04122635306538,80,4325.27293174879,6.04791230791793,88.8261228659745,7,10
9.74214128917661,2.73648710540444,-1.8525936619223,38.4206939074258,61.2958029174334,18.0962591703428,11.7384185929272,13.5899341958077,7.04132554738209,80,4325.26233382801,6.0478471890978,88.8270409668089,7,10
9.74214125350482,2.73646864889495,-1.85283137191811,38.4206880166637,61.2967778098575,18.0964230113887,11.7394340288658,13.5912499648454,7.04142006132969,80,4325.26519616838,6.04779493982368,88.8279487876201,7,10
9.74214326939345,2.73645542855629,-1.85301464987822,38.4206878815767,61.2976365481828,18.0965905628558,11.7403778529039,13.5924486787441,7.04151096339081,80,4325.28188813337,6.0477551145706,88.8288483457713,7,10
9.74214776956251,2.73644710366239,-1.85314593188002,38.4206955156224,61.2983881131715,18.096761631971,11.7412435159381,13.5935237847839,7.04159933541683,80,4325.31242143288,6.04772702905975,88.8297417722108,7,10
9.7421550880585,2.73644325589567,-1.85322860087052,38.4207125574803,61.2990429577973,18.0969360162348,11.7420268305523,13.5944721168086,7.04168624417508,80,4325.35648556976,6.04770980051134,88.8306312473727,7,10
9.74216546278194,2.73644340720017,-1.85326681055102,38.4207402721528,61.2996126131158,18.0971135082006,11.7427258430123,13.5952936411033,7.04177271614645,80,4325.41348748859,6.04770238871831,88.8315189422787,7,10
9.74217903998332,2.73644703730122,-1.85326530804326,38.4207795605348,61.3001093068377,18.0972938998863,11.7433406634597,13.5959911510556,7.04185971586941,80,4325.48259406561,6.04770363684156,88.832406965795,7,10
9.74219588043499,2.73645360049199,-1.85322925986009,38.4208309764386,61.3005456027586,18.0974769867502,11.7438732626732,13.5965699233197,7.04194812801018,80,4325.56277614106,6.04771231094583,88.8332973187344,7,10
9.7422159669736,2.73646254134681,-1.85316408515553,38.4208947499664,61.3009340678394,18.0976625711723,11.7443272437166,13.5970373478287,7.04203874321934,80,4325.65285288805,6.04772713742945,88.8341918552568,7,10
9.74223921310274,2.73647330908278,-1.85307529963643,38.4209708160737,61.3012869723573,18.0978504654086,11.7447075965596,13.597402543353,7.0421322477298,80,4325.75153541376,6.04774683764009,88.8350922517768,7,10
9.74226547234935,2.73648537035313,-1.85296837290593,38.4210588471494,61.3016160271691,18.0980404939958,11.7450204433466,13.5976759694655,7.04222921657271,80,4325.8574686236,6.04777015911073,88.8359999833664,7,10
9.74229454807833,2.73649822031773,-1.85284860139024,38.4211582884504,61.301932160805,18.0982324956058,11.7452727814476,13.5978690447368,7.04233011019647,80,4325.96927050476,6.04779590299369,88.8369163074767,7,10
9.74232620348765,2.73651139189472,-1.85272099838534,38.4212683952706,61.3022453378383,18.0984263243607,11.7454722307672,13.5979937798329,7.04243527422187,80,4326.08556813259,6.04782294740795,88.8378422546087,7,10
9.74236017152809,2.73652446315112,-1.85259020217717,38.421388270797,61.3025644188549,18.0986218506306,11.7456267910326,13.5980624329443,7.04254494201638,80,4326.20502985317,6.04785026654271,88.838778625448,7,10
9.74239616451932,2.73653706284221,-1.85246040265088,38.4215169036758,61.3028970612189,18.0988189613512,11.7457446139761,13.5980871936835,7.0426592397323,80,4326.32639323516,6.04787694548468,88.83972599387,7,10
9.74243388326334,2.73654887415249,-1.85233528629072,38.4216532044321,61.3032496589964,18.0990175599019,11.7458337944749,13.5980799002668,7.04277819343207,80,4326.44848853075,6.0479021908413,88.8406847151326,7,10
9.74247302548785,2.73655963673038,-1.85221799904451,38.4217960399832,61.3036273195327,18.0992175655958,11.7459021838474,13.5980517935195,7.04290173791713,80,4326.57025752098,6.04792533732904,88.8416549385231,7,10
9.74251329348547,2.73656914714121,-1.85211112613365,38.4219442656149,61.3040338735801,18.099418912834,11.7459572276479,13.5980133099811,7.04302972686833,80,4326.69076774244,6.04794585057733,88.8426366237028,7,10
9.7425544008468,2.73657725788802,-1.85201668757088,38.4220967539111,61.3044719153621,18.0996215499801,11.7460058294729,13.5979739152187,7.04316194392288,80,4326.8092222116,6.04796332646364,88.8436295599666,7,10
9.74259607821778,2.73658387517059,-1.85193614789858,38.422252420252,61.3049428685571,18.0998254380151,11.7460542415067,13.5979419773715,7.04329811432359,80,4326.92496485747,6.04797748734954,88.8446333876635,7,10
