Pdis,Psuc,T0,Tc,Tdis,Tret,Tsuc,Tsh,Tsup,CondFan,CprPower,Density,Cpr,Tset,Tamb
9.91883311506434,3.18703323578629,2.36252485300184,39.08527730827,58.206655492922,24.9813535405757,16.06987945821,13.7073663227688,12.0243602172205,100,4239.69720377718,6.99366689799275,89.6751582456557,12,30
9.91440009737724,3.12034577485753,2.36246752496311,39.0853026302094,58.2191374825455,24.8192595189736,15.9406117696713,13.7074119332469,11.3422625933501,100,4776.45921814992,6.84813765234826,89.6755042500165,12,30
9.89383988628003,2.89994081652814,1.76870832905212,39.0687372271097,58.0641543783994,24.3689609520667,14.7876920808879,14.1719034406192,8.14692547574629,100,5697.46013310557,6.37533176514701,88.2513134404794,12,30
9.86884797753243,2.69969543212938,-0.265773549177595,38.9918345984116,55.3756145985049,24.0845212216538,12.5728388937852,15.0534656300655,4.75557136339404,100,7047.317801512,5.95702729597609,80.8058212018085,12,30
9.8156984795148,2.54416032330264,-2.22008954699805,38.8981941534902,52.4384249086937,23.9598104249881,10.2714761644436,14.7929284407832,2.05980517596004,100,8031.02209738044,5.63594742419908,71.1816512404799,12,30
9.73519495131738,2.46872838606476,-3.8166963360149,38.6984587567642,50.6728397909318,23.9157680524988,8.17049054895756,14.0881725004585,0.03438952680483,100,8067.88161911437,5.48923707272989,61.82671288338,12,30
9.64493981656318,2.44490035967335,-4.61830396910824,38.3943756207492,50.0423822302529,23.9076011059787,6.35203581331751,12.7887945180658,-1.33010865232842,100,7449.94637365603,5.45427249949722,53.2421678870881,12,30
9.55291766362774,2.46051692764539,-4.87545339109988,38.0512056401961,50.1772904307299,23.9145472530182,4.84408146598082,11.2274892044174,-2.11795137285981,100,6455.64770699202,5.50461255115599,45.9222765847608,12,30
9.45162164087421,2.50062943882959,-4.70670363471464,37.6988263038298,50.6610477064615,23.9276249048862,3.64565084545848,9.55078510069546,-2.42982933163336,100,5374.39947058482,5.60724201902371,40.0624564041606,12,30
9.34125899283518,2.55321078917834,-4.27701732929398,37.3079759597031,51.3351195649289,23.9431847682885,2.72884282924593,7.92266817475246,-2.39281840545067,100,4360.16878462165,5.73550893611885,35.6953336619846,12,30
9.22726617173517,2.61030119984034,-3.72175627204734,36.8785459087347,52.1849394142498,23.9597834720311,2.05917492566283,6.45059910129328,-2.11812364736562,100,3509.82323114447,5.87174027770809,32.6424274354408,12,30
9.12487435300903,2.66370265314846,-3.12878815912939,36.4309723601102,53.1071115319124,23.9768274200878,1.61490944439748,5.18796308479222,-1.71199858360882,100,2781.58483598607,5.99746943294144,30.6675070895518,12,30
9.02482771739853,2.70918717290238,-2.58312612192969,36.0253945233797,54.0053203045655,23.9940740069002,1.40801858876205,4.19803556632718,-1.26144280184997,100,2205.22724568109,6.10278998347228,29.454709230252,12,30
8.92976817855685,2.74932176562825,-2.12497455133246,35.6257911714052,54.4769452185402,24.0114446630454,1.59992575232906,3.5329931400945,-0.62436584685247,95.8421241267243,1696.79795798711,6.19146979528683,28.684433176572,12,30
8.84159580689669,2.80477034295414,-1.72560987317212,35.2430125960847,54.2914971879587,24.0293314776909,2.28830045559607,3.32553562550117,1.42689227395908,91.5890288453858,1333.12271693039,6.30891170039027,29.0287088973033,12,30
8.7634766565674,2.83995597751492,-1.18118678725892,34.8852206967889,53.7580632588682,24.0481523329304,3.23585578423263,3.469487242855,4.74161059491922,87.6135632976545,1243.59930165842,6.37720965512048,30.0287088973033,12,30
8.69781746237473,2.8053846354939,-0.840000958425946,34.5659769749942,53.716320730904,24.0680073724571,4.23533718415695,4.07585674265857,7.5465820670932,84.066410833269,1430.8591946105,6.28743685526367,31.0287088973033,12,30
8.64491294831419,2.71990122096629,-1.17520195999089,34.2959944434874,54.5575370567921,24.0885216263091,5.18469768527098,5.41053914414783,9.23274759386715,81.066604927638,1604.56195115629,6.08410072525464,32.0287088973033,12,30
8.60355534051788,2.60716321146057,-2.01791917824289,34.0773412903337,56.0395682883997,24.1092850239844,6.05586605087581,7.20261686351387,10.0563768792707,78.6371254481518,1710.41356999813,5.8212506131422,33.0287088973033,12,30
8.57219963525165,2.47891258473632,-3.1611194683943,33.9057098939782,57.8641195611452,24.1300099976598,6.84429256904923,9.21698551927011,10.296792722638,76.7301099330906,1762.69273509477,5.52548207599046,34.0287088973033,12,30
8.54877632322107,2.35392770547527,-4.5089820707675,33.7751720470916,59.8076494529453,24.1504969875576,7.55913024809905,11.3532746398167,10.1279912633775,75.2796894121287,1832.14450630224,5.23873979965377,35.0287088973033,12,30
8.52343158243779,2.2525022752744,-5.87540751235935,33.6774234227082,61.7855128763167,24.1705795319536,8.21989468844328,13.4345377604584,9.60189970668273,74.1935935856462,1760.98893124131,5.00596767555861,36.0287088973033,12,30
8.49748825561969,2.16953663935629,-7.02615435799669,33.571429419929,63.5221600213973,24.1901050012182,8.8397107990881,15.24604904644,8.76702115717967,73.0158824436551,1694.97302243614,4.81535205910725,37.0287088973033,12,30
8.47522390722168,2.11128883079821,-7.99769639142266,33.4626864486146,64.6873247067209,24.2089258630392,9.42863077114566,16.8374071905108,7.61968777146626,71.8076272068294,1631.20485033915,4.68050548295044,38.0287088973033,12,30
8.45590627726053,2.0846820364284,-8.69714457799847,33.3691649860276,65.3941309879559,24.2269040452728,9.99305661459078,18.1257753491441,6.14248886932847,70.7684998447506,1557.57913665185,4.61652140230252,39.0287088973033,12,30
8.43811451273489,2.09181079391249,-9.02163422523063,33.2878714848833,65.4781741265982,24.2438768156211,10.5310742899281,19.0146908398214,4.34070261638118,69.865238720926,1447.73509049429,4.62781493007544,40.0287088973033,12,30
8.42255112878683,2.13040063307577,-8.93437991852096,33.2128756280976,64.8582077067957,24.2596978715302,11.0258425160607,19.4654542084491,2.29219446307843,69.0319514233067,1374.72758158453,4.70926550527512,41.0287088973033,12,30
8.40969033032948,2.19438578122465,-8.46601501780907,33.1471753156078,63.7213446252935,24.2743679337792,11.434786524214,19.4918575338697,0.223384210295933,68.3019479511977,1336.64870405346,4.84765282144527,30.2261415756648,12,30
8.37812305028602,2.32537640054974,-7.70373083856856,33.0928149796209,61.2584598182352,24.2881148010926,11.7273320302542,19.1385173627825,-1.14958769885334,67.6979442180103,898.294841172163,5.13551160489523,16.4984102464434,12,30
8.31290078485802,2.52904665687205,-6.19539801140183,32.9591201868144,57.9298859694963,24.3016736833825,11.9984103389248,17.922730041656,-0.912258818047121,66.21244652016,314.357682207218,5.58461641683918,20,12,30
8.238305411223,2.72583612994204,-3.97582284040476,32.6816846165567,54.7410620478244,24.3157599698783,12.3173595505399,15.9742331793296,0.505631211617526,0,163.741854146402,6.01780608311303,0,12,30
8.16818572366971,2.84050961847976,-1.9587570667444,32.3623651806039,51.4879759613639,24.3134771987927,12.5359156928807,14.2761166172843,1.45865943733736,0,67.8393174665552,6.26976472039927,0,12,30
8.13345072885582,2.97342259340759,-0.834658521887377,32.0602162672417,46.9238999603004,24.315728450735,12.6527964099034,13.3705742147681,2.37083665753573,0,52.8906840852106,6.56331359246835,0,12,30
8.10730031376533,3.16813041775485,0.425333478000425,31.9098186544045,39.5321711432817,24.3295756288448,12.7246955120145,12.2274629319029,4.09982326907863,0,58.5401936481514,6.9946390274029,0,12,30
8.04552036290841,3.42609888937143,2.19514053998842,31.7962720192798,31.5073528945996,24.3498546452711,12.7683095219372,10.5295549720261,6.95298774262625,0,74.009705153393,7.56710825627191,0,12,30
7.99317045136284,3.74917448157721,4.41564878432791,31.5269215938391,31.2891916300174,24.3731482735976,12.800135141002,8.35266073760926,10.818366660836,0,189.952211604012,8.28502557965182,0,12,30
7.95129603929172,4.06255896001928,7.02266099773681,31.2974642505878,31.1115051081262,24.3978111246147,12.8252128058464,5.77747414326524,14.9357490674401,0,0,8.98221920575796,0,12,30
7.91977332579397,4.32498772407882,9.39217844187749,31.1131073907667,30.9647268665665,24.4230602270757,12.8445384702184,3.43303436396889,18.3722989484509,0,0,9.56663351441804,0,12,30
7.89304310107656,4.50731880629343,11.2713472690792,30.9738425932641,30.8402637431492,24.4485265716207,12.8625842548011,1.5731912011392,20.7843507126705,0,0,9.9728883537671,0,12,30
7.87005025294706,4.63289578799691,12.5264129097121,30.8554235004354,30.7332028514166,24.4740371462214,12.8809442325293,0.336171345088985,22.3032059026429,0,0,10.2527139064885,0,12,30
7.84992072053086,4.70682787257428,13.3685192266748,30.7533199326637,30.6394743285951,24.4995090191816,12.8994503909496,-0.487574994145518,23.1921766251907,0,0,10.4173589527019,0,12,30
7.8320448433986,4.74525639035353,13.8562113825358,30.66374696906,30.556239431574,24.5249032945381,12.9179811104885,-0.956760991586236,23.6901968218621,0,0,10.5027770436397,0,12,30
7.81599107897531,4.76331361550007,14.1074080063536,30.5840573796456,30.481488781931,24.5502029576683,12.9364677808659,-1.18942689586504,23.9618215179428,0,0,10.5427245729096,0,12,30
7.80131941181141,4.77094053662972,14.2249094549232,30.5123739275529,30.4131735492585,24.5754009011216,12.9548764320746,-1.28844167405731,24.110280885134,0,0,10.5593892546719,0,12,30
7.78705970331743,4.77377274820589,14.2744374635828,30.4467648701809,30.3467765070734,24.6004949007192,12.9731937130583,-1.31956103150816,24.1965532131903,38.2973874464546,0,10.5653518982431,20,12,30
7.99898340911894,4.27256484798673,14.2928140737653,30.3829089796434,40.1336277021888,24.6265866833785,13.3492615633454,-1.31962036070695,23.9184211491678,37.5878775515938,76.7350142303409,9.44095849175388,20,12,30
8.09384246661974,3.63607489817078,10.9030503657822,31.3229989906084,38.8335888237979,24.6529857959984,13.6908953817259,2.44621119756317,22.7276120356782,48.0333221178708,1031.17783212334,8.02029076492169,20,12,30
8.14072793291663,3.19525983562006,6.13030270496296,31.7377298715604,42.0290761287208,24.6788139791848,13.900142182063,7.56059267676295,22.4959263798705,52.641443017338,1902.63484461977,7.03968907025439,20,12,30
8.15290054813986,2.77134770305717,2.4350512084531,31.9413678602767,46.7552845284799,24.704721259355,13.9504872466117,11.4650909736098,21.6312446136305,54.9040873364075,2145.96173774773,6.10054378318118,20,12,30
8.13919117500838,2.39753876446986,-1.50834390524153,31.9940929948606,52.0830667322418,24.7296021626415,13.8763199095987,15.4588311518532,16.3969259467762,55.4899221651182,2117.19668724637,5.27486033070241,20,12,30
8.10974075334173,2.19593337137176,-5.39238219139509,31.9347072483559,56.8014156206114,24.7526394283804,13.8214286691831,19.2687021009938,8.44888986462064,54.8300805372883,1642.03470217443,4.83004111478677,20,12,30
8.07026291172944,2.19614752814875,-7.68550837017665,31.8068801945409,59.3654293829906,24.77839924653,13.8816606377501,21.5069370393598,2.90467840399515,53.4097799393433,941.513052923785,4.82998527689337,20,12,30
8.03234205660346,2.32521369873628,-7.68298751447776,31.6349811597774,58.7793654924972,24.8057593880256,14.0767963136699,21.5646481522278,1.11798599700114,51.4997906641933,418.763934622952,5.11320878094619,20,12,30
8.00377130345855,2.48924059829346,-6.19723019388147,31.4692651604736,56.2872518573953,24.8289237552719,14.2859397889775,20.2740265075514,0.261130896155748,49.6585017830404,180.552848195151,5.47343126240178,20,12,30
7.97919770488729,2.68403878359881,-4.39847025521414,31.3440204247324,53.1743787441412,24.8466870560978,14.3771448082168,18.6844100441917,-0.300424733829459,48.2668936081375,50.1761451602393,5.90283323155764,20,12,30
7.9579459633111,2.87824484074182,-2.37754686603967,31.2360285862767,49.4931214952742,24.8611197816215,14.2497792998642,16.7546916742564,-0.152454150908511,47.0669842919638,50.1758827378591,6.33360535176776,20,12,30
7.94122037723156,3.08193036453554,-0.472401862420043,31.1424331450269,45.9263941782369,24.8741164158216,13.8478237232368,14.7221811622842,0.745354077203274,46.027034944743,50.1757865728122,6.78927712574766,20,12,30
7.93083102848002,3.24631261333493,1.42223575489413,31.0686391662128,42.6292397302482,24.8869094577496,13.1614876042375,12.4255879683427,2.13807178788056,45.2071018468088,169.758669728257,7.16251762393523,20,12,30
7.92924695389837,3.36920782676392,2.88231378790215,31.0227420364074,39.6474291001247,24.9000101695784,12.3471063636839,10.2791738163354,3.46268421881183,44.6971337378595,425.782515886608,7.44645639701275,20,12,30
7.93646915550294,3.45551611094262,3.93725692014743,31.0157400807142,37.5351892811877,24.9135283767201,11.5492258092717,8.40984944353647,4.53539756299296,44.6193342301582,692.221589792277,7.64964624281645,20,12,30
7.9508878090518,3.50402222070119,4.66063207551446,31.0476552556331,36.2381806621403,24.9274251224204,10.8552494291347,6.88859373375726,5.32245678605454,44.9739472848124,966.769489335638,7.76765991739942,20,12,30
7.96966177283563,3.5281883290149,5.06111929049058,31.1113065195972,35.7084678782653,24.9416054759591,10.2835060112836,5.79413013864416,5.86419840473633,45.6811835510804,1184.13073852729,7.82985086951892,20,12,30
7.99268910762318,3.53930746334851,5.25906251400278,31.1940543216018,36.0382961800777,24.9559899199797,9.8291874880797,5.0244434972808,6.24268657899455,46.6006035733535,1262.14787852471,7.86129601149683,20,12,30
8.01418015322831,3.54489481709632,5.34979019069823,31.2953492124776,36.9726772145389,24.970535048114,9.5021620892345,4.47939729738147,6.53752516005738,47.7261023608624,1213.09636561692,7.87855930008926,20,12,30
8.03349330923454,3.54873527054997,5.39529840850196,31.3896882644381,38.1230239117442,24.985227611695,9.33697760734077,4.10686368073254,6.8174515687511,48.7743140493118,1054.79643057829,7.88956612406874,20,12,30
8.04926047918123,3.62246098984108,5.42654653588664,31.4743048433069,38.8433983483809,25.000313021219,9.53472819605861,3.91043107145413,7.87388045313185,49.7144982589652,607.329445883775,8.05162450712089,20,12,30
8.06443253750277,3.82483038137664,6.02146308716993,31.5432720417808,38.1105584586347,25.0170156404121,10.0390439807555,3.51326510888867,11.845762720657,50.4808004642307,51.2113161697603,8.49666648030652,20,12,30
8.08068285841085,3.89011300173215,7.60816381632679,31.6095402939382,37.0329238734727,25.0358592316066,10.6299570240932,2.43088016442874,15.9138293693273,51.2171143770906,311.384324645787,8.63326133356227,20,12,30
8.0963546381676,3.79918182407202,8.10631739064473,31.6804142371729,37.1392324688376,25.0564219548532,11.1828971136741,2.52363963344851,19.0331513946799,52.0046026352544,751.90827051691,8.42142132843719,20,12,30
8.10750247544451,3.57730133831325,7.41066866148032,31.7486634680484,38.5819222889229,25.0767062842248,11.6262828351843,3.77222845219381,21.462723371689,52.7629274227599,1270.25212961368,7.91988296329934,20,12,30
8.112319208341,3.24930465515006,5.65816774812737,31.7971508728992,41.0369736086732,25.0925143133859,11.9026914641818,5.9681150870569,22.8676227284996,53.3016763655465,1705.01084019023,7.18576091009285,20,12,30
8.10562921160247,2.89296129718005,2.90835855233672,31.8180856912673,44.842084837494,25.1051530183408,12.0099380567252,8.99433291184511,22.4783996701232,53.5342854585255,1925.00106940087,6.3923073257916,20,12,30
8.08869873049801,2.54457208625858,-0.33211497152837,31.7890066373591,49.1298289548162,25.1181820352443,11.9827310047457,12.3420530282536,19.1649758368376,53.211184859546,2016.82018967384,5.61921948324513,20,12,30
8.06100598635951,2.28503972825809,-3.81237125409689,31.7153350847494,53.7259026110386,25.1334786642843,11.9321203830813,15.7951022588426,12.5973602865342,52.3926120527714,1800.2486787921,5.04417177880375,20,12,30
8.0241742147846,2.18809258226913,-6.65269774713761,31.5945820665362,57.1547945781354,25.1528853247586,11.9757922642772,18.5848181302189,5.80276328629157,51.0509118504021,1270.83630478325,4.82892552688263,20,12,30
7.98492090697638,2.26228530895174,-7.77793439779936,31.4334942942358,58.0876104772385,25.1777375644392,12.1740502782085,19.7537266620766,2.32860233561411,0,653.578847076328,4.99153107658174,0,12,30
7.92815122313352,2.35098974041783,-6.91343029884382,31.2612022589538,55.6877992287878,25.1869175341919,12.389058316317,19.0874805770523,1.51790967083593,0,172.831748325137,5.18605071744097,0,12,30
7.91534778855818,2.47504561604699,-5.90819585407439,31.0108960956026,49.2851047100572,25.194452151181,12.5158989187261,18.2972541703914,2.56317253615686,0,59.3152425777409,5.45967014456883,0,12,30
7.91142195999637,2.67578239563207,-4.55045095720618,30.9542575611733,39.582912232935,25.2089232775628,12.5922090977854,17.0663498759323,5.28465120352553,0,76.8024696151099,5.90379690870589,0,12,30
7.85848746484991,2.89640637447394,-2.46086589974016,30.9368770724093,30.6793633967469,25.2276918215979,12.6367530433661,15.0530749975255,9.10781234758406,0,191.461580706178,6.39261025921557,0,12,30
7.80310937601607,3.11816548564116,-0.299353598667949,30.7018886108106,30.4215081045446,25.2485869323222,12.6660886885554,12.9361066420341,13.310326993632,0,0,6.88444398860956,0,12,30
7.75291235576899,3.29959967032316,1.74913203268056,30.4547742386022,30.1877772626889,25.27047431198,12.6866186058895,10.9169566558749,17.1791951655234,0,0,7.28714103340776,0,12,30
7.70580749669659,3.43771210007613,3.3434310200733,30.229636508182,29.9684443558292,25.2928110461232,12.705462009074,9.34318758581617,20.1755322792559,0,0,7.59379534468688,0,12,30
7.66220611522909,3.53190367279693,4.51255407618345,30.0173674181267,29.7654245840118,25.3153281044291,12.7245658999995,8.19290793289053,22.2076593866191,0,0,7.8029163578285,0,12,30
7.6220440429456,3.58674128539355,5.28940254934645,29.8200139258719,29.5784191617919,25.3378957477349,12.7437902952703,7.43516335065306,23.4693029362447,0,0,7.92457248848243,0,12,30
7.58508612100822,3.61513990224283,5.73439811111336,29.6374784699336,29.4063331263032,25.3604508287225,12.7630288441665,7.00939218415692,24.2036513188802,0,0.319561158803687,7.98744361810974,0,12,30
7.55103813262843,3.62862824502066,5.96280346910487,29.4688649690989,29.2477965249606,25.3829621266195,12.7822171995866,6.80022537506159,24.6145369500093,0,0.40799254654582,8.01715738149944,0,12,30
7.51961184588335,3.63445412292449,6.07080737287174,29.3129792275445,29.1014672723242,25.4054150385064,12.8013245410361,6.71140982671488,24.8394189899329,0,0.401819445790949,8.02983104215512,0,12,30
7.49052033436829,3.63665914076692,6.11736139814622,29.1686263594043,28.9660093617988,25.4278026662175,12.8203391694652,6.68396314288992,24.964553008438,0,0.365285953037535,8.03445326440882,0,12,30
7.46350597850883,3.63717211998648,6.13496658967694,29.0345925595101,28.8402232472815,25.450122150137,12.8392597165551,6.68537257978829,25.0368538599894,22.6065839945572,0.319342600735801,8.03531392614562,20,12,30
7.77049910777668,3.13146874146428,6.13906112141819,28.9097774199968,47.5971972039714,25.4733219393433,13.1135791003051,6.7001985951369,23.1606683096199,21.2197491110759,76.7350139702884,6.90830819643859,20,12,30
7.82264286252949,2.59899548410972,1.86841560818687,30.3086390331746,48.1079706449236,25.496032949037,13.3147064657938,11.2451634921183,15.173425564917,36.7626559241621,1331.4965866907,5.72601697945493,20,12,30
7.87322996857665,2.3916871203368,-3.24541419272242,30.5420889775726,51.7989649261245,25.5178374829006,13.4509453938616,16.5601206585162,7.49513409731901,39.3565441952508,1368.2329632976,5.26600814938067,20,12,30
7.88683472795783,2.41360309801327,-5.45679671538261,30.7674533508717,53.8098749272822,25.5449434893812,13.6285399052576,18.9077421092442,3.30840259686966,41.8605927874637,753.323818040456,5.31275316183869,20,12,30
7.88153654132589,2.51785250878787,-5.2161699373487,30.8278762651807,53.3271725633275,25.5728195730946,13.9105231362828,18.8447098426063,2.60139700230951,42.5319585020083,406.69646856535,5.540414049658,20,12,30
