Pdis,Psuc,T0,Tc,Tdis,Tret,Tsuc,Tsh,Tsup,CondFan,CprPower,Density,Cpr,Tamb,Tset
6,2.92803182339495,-66.8562457822183,-66.8562457822183,21.5510217973122,-273.15,0,66.8562457822183,-273.15,0,0,6.61608351884431,0,30,0
6.00456474240043,2.97894230243652,-1.70530256582424e-13,21.5716593574974,21.5747763543193,-100.451919560119,0.00448077807880054,1.70530256582424e-13,-99.1298358736855,0,0,6.73175100342721,0,30,0
6.00896438163468,3.03800522070944,0.476714580310841,21.5965522831665,21.597671727559,-36.8371921355794,0.0102708210318383,-0.47223380223204,-31.346829313876,0,0,6.86596008535189,0,30,0
6.01340277020761,3.08110219320726,1.0219803953778,21.6205313137731,21.6207687492804,-13.4304936682846,0.016816175360475,-1.01170957434596,-5.58560545828044,0,0,6.96387740214841,0,30,0
6.01778957458055,3.11356065901486,1.41472994752377,21.6447080907055,21.6435973309211,-4.81695179717269,0.0238910837671824,-1.39791377216329,3.51568996085962,0,0,7.03760491728916,0,30,0
6.02208471101927,3.13870622415275,1.70775181922693,21.6685906248453,21.6659488799105,-1.64088151046695,0.0313683872689126,-1.68386073545975,6.30927794610591,0,0,7.09470016343635,0,30,0
6.02627590187209,3.15843621726719,1.93314708888806,21.6919613532079,21.6877595043242,-0.46179835856816,0.0391712341978518,-1.90177870161915,6.79999222280964,0,0,7.13947573510169,0,30,0
6.03036287248518,3.17396080485567,2.10903037194123,21.7147543468873,21.7090277748856,-0.00396195419352807,0.0472475906764771,-2.06985913774338,6.51198720961025,0,0,7.17468287877455,0,30,0
6.03434977999338,3.18610162045816,2.24683244300093,21.7369690202286,21.7297753249943,0.187101297692379,0.0555609676966924,-2.19958485232445,5.99259483773977,0,0,7.20218988241541,0,30,0
6.03824216292147,3.19549326556226,2.35423877653591,21.7586288370027,21.7500309766933,0.282801442655682,0.0640835570688978,-2.29867780883922,5.44431698675606,0,0,7.22344006041243,0,30,0
6.04204603079504,3.20264665773361,2.43710867819317,21.7797646919776,21.7698260030768,0.345466945090891,0.0727931719088701,-2.37302512112427,4.93449444508082,0,0,7.23959565033324,0,30,0
6.04576697187813,3.20794545573382,2.50010337468956,21.8004099562022,21.7891894850271,0.395894304941351,0.0816730323426214,-2.42731020278069,4.47966162089773,0,0,7.25152952592747,0,30,0
6.04941028843015,3.21170422761814,2.54669642833517,21.8205956354924,21.8081490150811,0.44186422972183,0.0907094564630029,-2.46502339599255,4.08083257124912,0,0,7.25995746736004,0,30,0
6.0529810356149,3.21418582110053,2.5797120248136,21.8403511126356,21.8267308999101,0.486176089522587,0.0998910633438754,-2.4890025683506,3.73345946901895,0,0,7.26547763364464,0,30,0
6.0564837028837,3.21559887642171,2.60149313279879,21.8597043649556,21.8449585022619,0.529780618616712,0.109208948160187,-2.50160206945492,3.43193797758636,0,0,7.26856486643148,0,30,0
6.05992267853151,3.21612744923679,2.61388984565963,21.878680244393,21.8628546584754,0.573040697667864,0.118655375308151,-2.50468089749944,3.17043931611352,0,0,7.26963807893266,0,30,0
6.06330173181028,3.21591510814927,2.61852593255992,21.8973030017884,21.8804389834382,0.616073097125025,0.128224456107944,-2.49987055725177,2.9440592586302,0,0,7.26902405527661,0,30,0
6.06662451469869,3.21508965043029,2.61666356930164,21.9155934875127,21.8977304817575,0.658921808364653,0.137911089851798,-2.48843911319369,2.74825808162245,0,0,7.2670136854944,0,30,0
6.06989441482733,3.21375938379341,2.60942289568447,21.9335718747071,21.914746782394,0.701599263386981,0.14771110378615,-2.47151180583268,2.57907117196601,0,0,7.26385350001827,0,30,0
6.07311456007327,3.21201646058093,2.59775118324222,21.9512568668914,21.9315041625714,0.74410783206298,0.157621101394909,-2.45004007945607,2.43305425362337,0,0,7.25975325484593,0,30,0
6.07628783758797,3.20993972634917,2.58245322404628,21.9686657271165,21.9480176467968,0.786446922130324,0.16763834230926,-2.42483212265137,2.30722159883942,0,0,7.25489241287665,0,30,0
6.07941692342488,3.20759677589647,2.56421702401207,21.9858143848102,21.9643011610398,0.828615290233074,0.177760645073704,-2.39657868170281,2.19898583462685,0,0,7.24942482276441,0,30,0
6.08250429613957,3.20504571832209,2.54363225518347,22.0027175994265,21.9803676035069,0.870611764173304,0.187986306685445,-2.36587161010976,2.10610365643066,0,0,7.24348273608667,0,30,0
6.08555225359302,3.20233650199161,2.52120596545461,22.0193890370184,21.996228932084,0.912435442306048,0.198314034203634,-2.33321965876917,2.02662921823838,0,0,7.23717982347852,0,30,0
6.08876068237832,3.19950925631789,2.49737430056484,22.0358413637797,22.0129253407306,0.954085735666069,0.208742923974455,-2.29906026636121,1.95898407516756,0,0,7.23060740516167,0,30,0
6.09213720699177,3.19660482901046,2.47248788280899,22.053153158303,22.0304965067199,0.995586438705971,0.219272476302535,-2.26374495883454,1.90154846469289,0,0,7.22385841880449,0,30,0
6.09548219554058,3.19365448340409,2.44690450295775,22.0713645064495,22.0479035615328,1.0369048443938,0.229902186723905,-2.22763202665521,1.85307234406736,0,0,7.21700399326843,0,30,0
6.09879904750156,3.19068663168148,2.42089838280543,22.0893982431083,22.0651641957767,1.07803979528751,0.240631814964161,-2.19099619608153,1.81240376161327,0,0,7.21010876076836,0,30,0
6.10208914543936,3.18772295907951,2.3947193417635,22.1072729033647,22.0822856042083,1.11899750203509,0.251461397996536,-2.15408752679934,1.77865285524081,0,0,7.20322204353844,0,30,0
6.10535307797868,3.18478362297338,2.36855850610004,22.1249961274962,22.0992708499838,1.1597810484659,0.262391114637865,-2.11709710810351,1.75098252413795,0,0,7.19638968101187,0,30,0
6.10859150283158,3.18188581045675,2.34259404618439,22.142571267568,22.1161233557843,1.20039190843346,0.273421276580621,-2.08020293154652,1.72866438774082,0,0,7.18965075044107,0,30,0
6.11180468468649,3.17904413877152,2.31697836974297,22.1600020405777,22.1328444990278,1.24083108498218,0.284552305330351,-2.04355709316235,1.71106414407194,0,0,7.18303847883813,0,30,0
6.11499316855433,3.1762710273913,2.29184156251159,22.1772900420181,22.1494371159075,1.28109947914976,0.295784712330885,-2.00728925718124,1.69762923633743,0,0,7.17658109026195,0,30,0
6.11815719361325,3.17357695969475,2.26729459011614,22.1944383708557,22.1659024510877,1.32119800342804,0.307119081797111,-1.97150987778525,1.68787809769532,0,0,7.17030240186921,0,30,0
6.12129727806694,3.17097072092991,2.24343153474553,22.2114484760295,22.1822432012592,1.36112761155789,0.318556055121974,-1.93631245294841,1.68139079039889,0,0,7.16422236592557,0,30,0
6.12441365827111,3.16845960895756,2.22033163195556,22.2283233021652,22.1984605963983,1.4008893014315,0.330096317108712,-1.90177557683359,1.67780089593612,0,0,7.15835754979607,0,30,0
6.12750683174829,3.16604963578437,2.19806107620201,22.2450642743484,22.2145572255727,1.44048411016735,0.341740583770672,-1.8679647590933,1.67678849686325,0,0,7.15272159487728,0,30,0
6.13057703194297,3.16374567359609,2.17667475423718,22.2616742164725,22.2305343036092,1.47991310728651,0.353489591666573,-1.83493417046651,1.67807409056536,0,0,7.14732554923817,0,30,0
6.13362473563177,3.16155156438132,2.1562174948981,22.2781545297408,22.2463943116152,1.51917738812983,0.365344087840072,-1.80272790323153,1.6814132558867,0,0,7.14217811740941,0,30,0
6.13665017190543,3.15947074021994,2.13672500281973,22.2945079175714,22.262138441761,1.5582780679203,0.377304825826855,-1.77138091497966,1.68659236723749,0,0,7.13728707093514,0,30,0
6.13965379666708,3.15750666225424,2.11822933866608,22.3107357499788,22.2777690665301,1.59721627691096,0.389372571064598,-1.74092451283923,1.69342549709916,0,0,7.13266024634934,0,30,0
6.14263583357554,3.15566196345238,2.10076280560469,22.3268406098109,22.2932873498253,1.63599315627198,0.401548100765126,-1.71139023454009,1.70175128037147,0,0,7.12830359654139,0,30,0
6.1455967178114,3.15393786309818,2.08435031241163,22.3428238305453,22.3086955562919,1.67460985448776,0.413832187564708,-1.6828022116465,1.7114285762641,0,0,7.1242198603588,0,30,0
6.14853666679066,3.15233466826829,2.069004136123,22.3586878758427,22.3239948173454,1.71306752382958,0.426225581591439,-1.65517194855829,1.7223322804727,0,0,7.12040970321885,0,30,0
6.151456095299,3.15085219455722,2.05472835656121,22.3744340387267,22.3391872914975,1.75136731731584,0.438729001288323,-1.62850277496977,1.73435105509157,0,0,7.1168726738377,0,30,0
6.15435521401288,3.14948987725918,2.04152258652317,22.3900646659781,22.3542740750919,1.78951038613064,0.45134312923534,-1.60279358523485,1.74738612826707,0,0,7.1136074571537,0,30,0
6.15723441789006,3.14824683058335,2.02938295419591,22.405581007923,22.3692572234573,1.82749787765755,0.464068609029255,-1.57803982496057,1.7613499966501,0,0,7.11061200907689,0,30,0
6.16009391062093,3.14712190119333,2.0183026260197,22.4209852980256,22.3841377965824,1.86533093379381,0.47690604293922,-1.55423401699045,1.77616509523659,0,0,7.10788367830105,0,30,0
6.16293406802493,3.14611369877035,2.00827228130561,22.4362787429967,22.3989177502019,1.9030106896642,0.489855989870478,-1.53136623836639,1.791762566172,0,0,7.1054192758704,0,30,0
6.16575508671494,3.14522062150298,1.9992803838673,22.4514634671737,22.4135981074732,1.94053827247245,0.502918963638194,-1.50942439399682,1.80808114076376,0,0,7.10321513319797,0,30,0
6.16855732413093,3.1444409077857,1.9913134097751,22.4665406335455,22.4281807284858,1.97793089886795,0.516095587726682,-1.48839444613691,1.82506652329943,0,0,7.10126721754456,0,30,0
6.1713409698307,3.14377266494484,1.98435631013268,22.4815122618521,22.4426665996835,2.01517894396011,0.529386281566644,-1.468260722406,1.84267061710887,0,0,7.09957120152773,0,30,0
6.17410636367605,3.14321387290124,1.97839277004675,22.4963794718434,22.45705748968,2.05226382960075,0.542791260456283,-1.44900648848011,1.86084966547389,0,0,7.09812247147229,0,30,0
6.17685368826991,3.1427624096995,1.97340524464204,22.5111441833875,22.4713543487263,2.08919618444651,0.556310848034741,-1.43061398418575,1.87956346167869,0,0,7.09691618127947,0,30,0
6.17958326670561,3.14241608007356,1.96937519073322,22.5258074738725,22.4855588581747,2.12598026634589,0.569945319194915,-1.41306434269848,1.89877597417717,0,0,7.0959473194544,0,30,0
6.18229527478468,3.14217262853046,1.96628332611715,22.540371168035,22.4996719328824,2.16261820176788,0.583694900160708,-1.39633800692224,1.91845498875637,0,0,7.09521073884575,0,30,0
6.18499001964609,3.14202975305481,1.96410975101139,22.5548363020437,22.5136951711759,2.19911139917951,0.597559768598046,-1.38041485085068,1.93857131614936,0,0,7.09470118779054,0,30,0
6.18766767048576,3.14198511846291,1.96283407523293,22.5692046102371,22.5276294535376,2.23546102001939,0.611540054009481,-1.36527430663489,1.95909852129807,0,0,7.09441334045465,0,30,0
6.19032851929123,3.14203636697493,1.96243554236963,22.5834770889125,22.5414762994475,2.27166813578322,0.62563583810504,-1.35089548836015,1.98001246953783,0,0,7.09434182084865,0,30,0
6.19297272887294,3.14218112780583,1.96289312916184,22.5976553866564,22.5552365561581,2.30773378033473,0.639847155386576,-1.3372572910568,2.00129074925314,0,0,7.09448122460782,0,30,0
6.19560057684993,3.14241702582597,1.9641856361074,22.6117404613525,22.5689116683769,2.34365896742497,0.654173993806978,-1.32433848072083,2.02291270617036,0,0,7.09482613865515,0,30,0
6.19821221988241,3.14274168893216,1.96629176969691,22.625733880349,22.582502451351,2.37944469650807,0.668616295580989,-1.31211777588993,2.0448594937285,0,0,7.09537115792995,0,30,0
6.20080792197894,3.14315275436868,1.96919021302972,22.6396365646355,22.5960102789604,2.41509195483889,0.683173957978966,-1.30057391744873,2.06711367642538,0,0,7.09611089972943,0,30,0
6.20338783389277,3.14364787442284,1.9728596869187,22.6534500046764,22.6094359357126,2.45060171818744,0.697846834277357,-1.28968572893973,2.08965900394611,0,0,7.09704001662565,0,30,0
6.20595220675128,3.14422472269272,1.97727900524774,22.6671750861124,22.6227807284547,2.48597495124255,0.712634734693893,-1.27943217097038,2.11248032424834,0,0,7.0981532106815,0,30,0
6.20850118564662,3.14488099724603,1.98242713525303,22.6808132267033,22.6360454122349,2.52121260778131,0.727537427461186,-1.26979240055914,2.13556346327005,0,0,7.09944524060075,0,30,0
6.21103500952338,3.14561442015488,1.98828322985366,22.6943652782819,22.6492312305016,2.55631563090543,0.74255463980262,-1.26074580239248,2.15889512330114,0,0,7.10091092064686,0,30,0
6.21355381805681,3.14642274353936,1.99482662745066,22.7078325898948,22.6623389101139,2.59128495316634,0.757686059012713,-1.25227198764804,2.18246278769868,0,0,7.10254513434621,0,30,0
6.2160578386749,3.14730375480819,2.00203690960842,22.7212159810843,22.6753696345889,2.62612149679364,0.772931333541351,-1.24435085059571,2.20625464652045,0,0,7.10434284636565,0,30,0
6.2185472058763,3.14825527713602,2.00989395133269,22.7345167359839,22.688324103847,2.66082617382705,0.788290074186989,-1.23696261779133,2.23025953260509,0,0,7.10629910356833,0,30,0
6.22102213620671,3.14927517098565,2.01837792863449,22.7477356433266,22.7012034447748,2.69539988634995,0.803761855205948,-1.2300878544475,2.25446686214258,0,0,7.10840903844422,0,30,0
6.22348275922251,3.1503613356338,2.02746933520979,22.7608739259439,22.7140083315733,2.72984352662661,0.819346215504765,-1.22370748000384,2.27886658063909,0,0,7.11066787254768,0,30,0
6.22592928118921,3.15151171033674,2.03714899894163,22.773932343195,22.726739837632,2.7641579773358,0.835042659764099,-1.21780278343687,2.30344911720499,0,0,7.11307091911785,0,30,0
6.22836182694781,3.1527242753408,2.04739809498648,22.786912060031,22.7393986126134,2.79834411170953,0.850850659637103,-1.21235543522238,2.32820534389526,0,0,7.1156135853462,0,30,0
6.23078059305436,3.15399705257755,2.05819815727779,22.7998138078214,22.7519856793797,2.83240279376463,0.866769654875895,-1.20734749764068,2.35312654072709,0,0,7.11829137392852,0,30,0
6.23318569985316,3.15532810624534,2.06953108702658,22.812638696875,22.7645016641929,2.86633487843864,0.882799054522991,-1.20276143215068,2.3782043643177,0,0,7.12109988435851,0,30,0
6.23557733415807,3.15671554249911,2.08137916002312,22.8253874318989,22.7769475392178,2.90014121181673,0.898938238021287,-1.19858010550013,2.4034308202726,0,0,7.12403481219729,0,30,0
6.23795561138228,3.15815751019518,2.09372502582369,22.8380610685854,22.7893239050552,2.93382263126392,0.915186556380206,-1.1947867878024,2.42879823806669,0,0,7.1270919507384,0,30,0
6.24032071007984,3.15965220265385,2.10655171616082,22.8506602828384,22.8016316908864,2.96738182421194,0.931543351342043,-1.19136515978062,2.45429929354168,0,0,7.13026719474337,0,30,0
6.24267274216744,3.16119786260135,2.11984266222879,22.863186083778,22.8138714791168,3.00083245177024,0.948008057250092,-1.18829931088675,2.47992732230955,0,0,7.13355655028725,0,30,0
6.2450118782402,3.16279277784694,2.13358174003559,22.8756391262523,22.8260441575099,3.03416366692051,0.964579927991736,-1.1855736827855,2.50567620113713,0,0,7.13695612858766,0,30,0
6.24733822639717,3.16443526799488,2.14775323319446,22.8880203745683,22.8381502886047,3.06736016583989,0.981258074796756,-1.18317330520273,2.53153930643191,0,0,7.14046211531889,0,30,0
6.24965194952213,3.16612368985792,2.16234171604589,22.9003304609504,22.8501907200352,3.10043145613173,0.998041723299309,-1.18108364124913,2.55750953608629,0,0,7.14407077945142,0,30,0
6.25195315201445,3.16785644556635,2.17733210293244,22.9125703063614,22.8621659950877,3.13338123031667,1.01493007719631,-1.17929037963313,2.58358034343979,0,0,7.14777849348251,0,30,0
6.25424198945921,3.16963197925764,2.19270972115663,22.9247405211552,22.8740769234145,3.16621123757085,1.03192231929273,-1.17777964396032,2.60974577811771,0,0,7.15158172589607,0,30,0
6.25651856272303,3.17144877606768,2.20846028235661,22.9368419852834,22.8859240299174,3.19892257438352,1.04901761255007,-1.17653796306388,2.63600015316194,0,0,7.15547703884892,0,30,0
6.25878302049855,3.17330536133551,2.22456987423925,22.948875288233,22.8977080883812,3.23151611489567,1.06621510108312,-1.17555226168918,2.66233812464714,0,0,7.15946108634308,0,30,0
6.26103546028388,3.17520029988836,2.24102495411665,22.9608412712336,22.9094296061783,3.26399265442717,1.08351391110835,-1.17480985303354,2.68875453266037,0,0,7.16353061258154,0,30,0
6.26327602426261,3.17713219569883,2.2578123430664,22.972740503887,22.9210893232209,3.29635295746112,1.10091315183229,-1.17429843195805,2.71524417201408,0,0,7.16768245116969,0,30,0
6.26550480672131,3.17909969115203,2.27491922330188,22.9845737908582,22.9326877301686,3.32859777364689,1.11841191644612,-1.17400607146959,2.74180200776038,0,0,7.17191352343028,0,30,0
6.2677219436956,3.18110146669054,2.29233313200587,22.9963416828003,22.9442255349401,3.36072784327331,1.13600928300815,-1.17392121555974,2.76842327146807,0,0,7.17622083757768,0,30,0
6.26992752641006,3.18313624040128,2.31004195843286,23.0080449498438,22.9557032122609,3.3927438991376,1.1537043153586,-1.17403267542471,2.79510336034423,0,0,7.18060148775987,0,30,0
6.27212168509234,3.18520276523942,2.32803394042145,23.0196841245831,22.9671214398253,3.42464666729433,1.17149606394685,-1.17432962506285,2.82183783321688,0,0,7.18505264773792,0,30,0
6.27430450804718,3.18729982988552,2.3462976399594,23.0312599445246,22.9784806771642,3.456436867337,1.18938354113379,-1.17480157601256,2.84862239562653,0,0,7.18957157315836,0,30,0
6.27647612001449,3.18942626881644,2.36482195083164,23.0427729250484,22.9897815734141,3.48811521261712,1.20736549372236,-1.17543840969785,2.87545290381138,0,0,7.1941556274809,0,30,0
6.27863660651524,3.19158095878785,2.38359618750172,23.0542237728348,23.0010245736195,3.51968241034757,1.2254403780961,-1.17623069377936,2.90232537610325,0,0,7.19880227433107,0,30,0
6.28078608710422,3.19376280738998,2.40261005377209,23.0656129868563,23.0122102999337,3.55113916176111,1.24360659186914,-1.177169675676,2.92923598597702,0,0,7.20350904839281,0,30,0
6.28292464464751,3.19597075255984,2.42185354157459,23.0769412446643,23.0233391835856,3.58248616218543,1.26186252747038,-1.17824694970545,2.95618104014341,0,0,7.20827355357287,0,30,0
6.28505239379803,3.1982037628829,2.44131692657709,23.0882090295864,23.0344118212197,3.61372410118332,1.28020657088211,-1.1794543991067,2.98315692879783,0,0,7.21309346369715,0,30,0
6.28716941488826,3.20046083707937,2.4609907707017,23.0994169916337,23.0454286308799,3.64485366261732,1.29863710059817,-1.18078419981958,3.01016009469004,0,0,7.21796652135346,0,30,0
6.28927581793592,3.20274100335049,2.48086591740963,23.1105655992066,23.0563901850896,3.6758755247821,1.31715248669821,-1.18222881681146,3.03718716076116,0,0,7.22289053641463,0,30,0
6.29137168085511,3.20504331872812,2.50093348571949,23.1216554762702,23.0672968893077,3.70679036045709,1.33575109009479,-1.18378099902128,3.06423498290985,0,0,7.22786338456757,0,30,0
6.29345710927947,3.20736686838716,2.52118486422995,23.1326870769788,23.0781492932432,3.73759883703644,1.35443126186715,-1.18543377413516,3.09130050203601,0,0,7.23288300575669,0,30,0
6.29553217881417,3.20971076498922,2.54161170479523,23.1436610006578,23.0889477903394,3.76830161658478,1.37319134274077,-1.18718044292808,3.11838071128392,0,0,7.23794740269609,0,30,0
6.29759699094534,3.21207414800712,2.56220591645359,23.1545776878612,23.099692908722,3.79889935595759,1.39202966263383,-1.18901457371283,3.14547270004647,0,0,7.24305463933814,0,30,0
6.29965161907303,3.21445618307594,2.58295965917324,23.1654377145993,23.1103850303593,3.82939270684841,1.41094454032799,-1.19092999653941,3.17257365164329,0,0,7.24820283940033,0,30,0
6.30169616075868,3.21685606132581,2.60386533781633,23.176241508438,23.1210246629529,3.85978231590599,1.42993428319272,-1.19292079748834,3.19968084480138,0,0,7.25339018485011,0,30,0
6.30373068729583,3.21927299874169,2.62491559593246,23.1869896233184,23.131612177509,3.89006882440077,1.4489971870147,-1.19498131273974,3.22679165092472,0,0,7.25861491445008,0,30,0
6.30575529253104,3.22170623550987,2.64610330977803,23.1976824743992,23.1421480623975,3.9202528684857,1.46813153587209,-1.19710612276333,3.25390353212265,0,0,7.26387532227201,0,30,0
