Pdis,Psuc,T0,Tc,Tdis,Tret,Tsuc,Tsh,Tsup,CondFan,CprPower,Density,Cpr,Tset,Tamb
8.15346754426311,2.59845983259999,-3.25094442388905,31.9965438172921,49.3304113826735,6.11710907469364,3.56214013510373,6.81308434084787,0.00266848282240062,55.5171535254683,1533.0650152114,5.82862702246394,34.5069813533928,0,30
8.14748995551074,2.61659522823759,-3.2509495034825,31.9965474696328,49.1257092284075,6.11712805674364,3.56464311621136,6.81308963858623,0.0179546462872509,55.517194107031,1341.74253529561,5.86948704800626,27.6056176540967,0,30
8.13661723560013,2.65924466861767,-3.0640298504066,31.9706645706473,48.4326214373407,6.11727153098076,3.56628923798371,6.62867296661796,0.111202037799274,55.2296063405253,1160.21707147542,5.96563545075509,27.6303795048391,0,30
8.12515275415663,2.69335702305281,-2.62835383207761,31.9235491682552,47.6772951934996,6.11717105070983,3.53812630123849,6.19464307006132,0.225673661752069,54.7061018695021,1139.68827154888,6.04288059454305,27.7819376462279,0,30
8.11295824157141,2.71980619641075,-2.28374924348628,31.8738181382267,46.9949213396974,6.11462541303302,3.4580556321186,5.82187554472478,0.31233155073744,54.153534869186,1162.04024813037,6.1034475299114,27.971123218938,0,30
8.10074827772278,2.74320344676642,-2.01886723905602,31.8208623993217,46.3468746955766,6.10867021688779,3.31148226024612,5.47692287117462,0.384701606788553,53.5651377702411,1187.98264663198,6.15791515236855,28.1193172698834,0,30
8.08936271787589,2.76582796959939,-1.78619950585983,31.7677795500519,45.651134605788,6.1012132301916,3.07499207828846,5.09768176610595,0.508285738478151,52.97532833391,1227.10079140352,6.21171463398057,28.2481449534351,0,30
8.07948108062254,2.78123868235691,-1.5626658062717,31.7182265534855,44.8858570036543,6.09407390581589,2.75241817593809,4.63765788456016,0.638600737663808,52.4247394831718,1289.72615686028,6.25027325448294,28.4681329802131,0,30
8.07172564757635,2.78858012040237,-1.41121098080413,31.6751764914563,44.0231140751439,6.08639260088466,2.42438218701943,4.16362915674222,0.732661862464454,51.946405460626,1419.04213520374,6.27070030402293,28.7090562523295,0,30
8.06633957110487,2.78944841722196,-1.33928737136023,31.6413616453573,43.2470629819832,6.07744858039757,2.09542452585902,3.76366955837966,0.776946156904785,51.5706849484148,1568.71781044897,6.27651872819142,28.8977336437527,0,30
8.06332331404095,2.78538959916476,-1.33079037094876,31.6178631662184,42.5753690674862,6.06854513246077,1.77586776090504,3.42621489680778,0.777170455606893,51.30959073576,1715.58677497297,6.27107979861193,29.0061038197512,0,30
8.06300702872034,2.77815926684475,-1.37052676603599,31.6046986258146,42.0582473921927,6.06167415789264,1.47561830204245,3.14639452694104,0.746613903959883,51.1633180646066,1849.16748159517,6.2582243338363,29.0381758604274,0,30
8.06623925783182,2.76937375242315,-1.44142336535009,31.6033179749176,41.7314385477945,6.05809268173635,1.20021266540118,2.91704166739254,0.699531636145878,51.147977499084,1956.24893306922,6.24153985017722,29.0128667167219,0,30
8.07058626689271,2.76024205852644,-1.52776075910907,31.6174254055894,41.5940539531917,6.05789961780533,0.951432795888138,2.72797342451025,0.647527415441971,51.3047267287713,2029.76781713567,6.22374331275507,28.9533373434937,0,30
8.07496129501406,2.75156485076094,-1.61772408747657,31.6363917169174,41.6448397903911,6.06051089166181,0.729973808766431,2.56915688336471,0.597698002143829,51.5154635213049,2065.10834853438,6.20664383041822,28.8800654962807,0,30
8.07877257531736,2.74369136690121,-1.70342265847677,31.6554725208823,41.8637378418157,6.06497030294696,0.534815181040983,2.4333964672432,0.55354233344832,51.7274724542473,2064.30106379899,6.19104907644395,28.8065196627308,0,30
8.08170731499674,2.73665312296187,-1.78136382000821,31.6720883160608,42.2247335520998,6.07043070352773,0.364860199717555,2.31617900104919,0.515910172743986,51.9120924006756,2032.34169561163,6.17704715144531,28.740011103325,0,30
8.08365049660759,2.73029511934344,-1.8511828170308,31.6848786957746,42.7025437419361,6.07624619192796,0.219060768234215,2.21604301674836,0.483971434407863,52.054207730829,1974.56406775142,6.16430173072141,28.6829676898273,0,30
8.08441501542135,2.7246060552679,-1.91437293656583,31.6933456782982,43.2791389856193,6.08176925466552,0.0992775223356261,2.13343370480004,0.455711155557708,52.148285314424,1896.35061015891,6.15276840354279,28.6345130140779,0,30
8.08400142976289,2.71935251760751,-1.97101089791806,31.6966764797034,43.9114008011646,6.08675616777714,0.00702167695914113,2.07028842025369,0.429890379114966,52.1852942189267,1800.68521596256,6.14190216103037,28.5913057951228,0,30
8.082447553155,2.71446410010685,-2.02339394836855,31.6948746284233,44.6039120703486,6.09117261347268,-0.0557685003213351,2.03041562532769,0.405459924426225,52.1652736491477,1695.62117186099,6.13152282884987,28.5513062257546,0,30
8.07984353351931,2.70989953004499,-2.07220649159177,31.6881042997599,45.3429547683641,6.09507913848836,-0.0902131605207046,2.01643799127044,0.382095156399032,52.0900477751102,1579.53405785098,6.12155141190705,28.5127256465964,0,30
8.07648493215622,2.70749918706637,-2.11784652021441,31.676756242961,45.9166740673261,6.09861325919667,-0.0332504345648204,2.02763335969371,0.375931889537128,51.9639582551223,1436.69024059424,6.11544643513526,28.47510684384,0,30
8.07295584533772,2.71677303889643,-2.1418707471953,31.6621157319088,46.1565258526327,6.10213589842272,0.163296494679003,2.10862031263048,0.551619467707042,51.8012859100982,1327.28870109004,6.13424709549788,28.4701719941348,0,30
8.07050185240782,2.71745400925177,-2.04914250078633,31.6467271215115,46.2693458994082,6.10545438168265,0.429500959335655,2.21243899546533,0.81022312414666,51.6303013501278,1309.50360848494,6.1327331923303,28.8231107070347,0,30
8.06838578575305,2.70361790034385,-2.04234317285653,31.636023483649,46.480844036979,6.10376460703253,0.711629582410012,2.47184413219219,0.990425086789003,51.5113720405446,1345.93186291848,6.09811642736976,29.354055642578,0,30
8.06664952171844,2.67720589471866,-2.18075200537544,31.6267918209531,46.8731359941623,6.0935890351584,0.98488762165772,2.89238158778545,1.02312028045566,51.4087980105905,1395.55053610269,6.03513802795165,29.7499704851238,0,30
8.06597286129813,2.64581938071669,-2.4464865814341,31.6192157447569,47.3962755281106,6.07882059239324,1.24109249105521,3.43137420309182,0.942927133617218,51.3246193861878,1421.79450551564,5.96115525414973,29.8590248836215,0,30
8.0656348264347,2.61704135597418,-2.76491193486623,31.6162628484875,47.9357287111305,6.06675551198055,1.48319263775039,4.00600442592145,0.841703130946428,51.291809427639,1414.27058728707,5.89331341716524,29.7333001343283,0,30
8.06466147976182,2.59424353908758,-3.0594442729049,31.614787619434,48.3988149837045,6.0622393540018,1.71722405341234,4.54263691065529,0.798671555682745,51.2754179937114,1385.99137500834,5.83915880685615,29.5543669733503,0,30
8.06246465826522,2.5756127884528,-3.29455057377743,31.6105395454891,48.7691550437339,6.06510660735012,1.94549072238698,5.01177462718977,0.828382814144106,51.2282171721008,1359.94421190844,5.79454202762351,29.490318792925,0,30
8.05900627393945,2.55717840575238,-3.48787019180594,31.6009503207849,49.0940652843954,6.07123323324709,2.16578535685073,5.43336091419292,0.886595632325054,51.1216702309437,1349.15022245868,5.75049644808482,29.5786880070182,0,30
8.05455049038977,2.53658252924337,-3.6802175870003,31.5858503346155,49.3828836221207,6.07610348093289,2.37418742439326,5.84600294385103,0.917909490694797,50.9538926068387,1354.71796505999,5.70173439624116,29.7310386340388,0,30
8.0494159577187,2.51463989777135,-3.89638875755242,31.5663883205244,49.6836283869201,6.07770486827576,2.56830234801453,6.27057618194567,0.895137308802873,50.7376480058263,1359.14885089245,5.65012420666881,29.8290629336786,0,30
8.04386550922217,2.49434804664433,-4.1281917208504,31.5439516145004,49.9820014144972,6.0773145906802,2.74903070508208,6.69649406886492,0.833296989038843,50.4883512722264,1352.17257774913,5.60242176172319,29.8094696727119,0,30
8.03793814845842,2.47857500187361,-4.34395040239497,31.5196853421225,50.2332475602344,6.0775848112861,2.9189272334699,7.09298110747704,0.76652893248604,50.2187260235833,1332.53638257347,5.56506282315959,29.7001854216681,0,30
8.03293405454793,2.4683864824447,-4.5126002747752,31.4937573182969,50.4163008724861,6.08034653803207,3.08053515129353,7.4315275082451,0.720967148269324,49.9306368699656,1306.11092374976,5.54041059745776,29.5746682464837,0,30
8.02878130313096,2.4629731466166,-4.62198016244707,31.4718567376104,50.5276630896093,6.08549584533779,3.23500382204537,7.70251531374061,0.699544311269392,49.6872970845598,1281.19020684803,5.52661408216815,29.4919646712519,0,30
8.0245568166578,2.46094518551595,-4.68023757661928,31.4536742920706,50.5760323907245,6.09143564073804,3.38130023189888,7.91524139866465,0.686691863383032,49.4852699118957,1262.76926480308,5.52054038365633,29.4606243062022,0,30
8.02035591814354,2.46093957568989,-4.70208763484231,31.4351705011917,50.5868209433839,6.09703066372361,3.52014968864933,8.08338786674119,0.664228203779601,49.2796722354639,1249.03402091102,5.51910364643791,29.4471938115957,0,30
8.01628936175594,2.46313871711595,-4.7021480966331,31.4167627610295,50.5631899815998,6.10146603999709,3.65012103252059,8.22229778528242,0.624075688778419,49.075141789217,1237.21051627132,5.52272575735391,29.4110012517824,0,30
8.01242219693447,2.46816489134028,-4.67845426832196,31.3989367793615,50.5021904927311,6.10514372060373,3.7716112457266,8.32857530084254,0.574154191039213,48.8770753262385,1223.59375718735,5.53280086044637,29.333186573251,0,30
8.00880048147137,2.47642872046056,-4.62436294973435,31.3819785307929,50.3973571919396,6.10897537658639,3.88526327048191,8.39597419546095,0.526810046998321,48.6886503421437,1207.61920677416,5.5502434629408,29.2310939588753,0,30
8.00547473315803,2.48768817676271,-4.53561297194312,31.3660910400927,50.2478768001966,6.11350514995178,3.99160273068816,8.42087624242504,0.490794273127619,48.512122667697,1191.32808944545,5.57449987225154,29.1327428405079,0,30
8.00251725429865,2.50113307799152,-4.41505882545692,31.3514971168904,50.0612772812077,6.11860319547361,4.09051778083369,8.40666155614508,0.466777793058498,48.349967965449,1177.67476261401,5.60374499900915,29.0584395829474,0,30
7.99999442777763,2.51575840662236,-4.27165629291409,31.3385153882351,49.8514399967531,6.12366887481807,4.18158803351315,8.36217407374778,0.449610604376119,48.2057265359452,1167.89967163508,5.63572002932403,29.0102516445766,0,30
7.99797916138138,2.53083859425656,-4.11633803217308,31.3274386950458,49.6300320783222,6.1281595159698,4.26397439465546,8.29792606568623,0.433859224896082,48.0826521671752,1162.13106158887,5.66880108004115,28.9769200004624,0,30
7.99651878376773,2.54601895026315,-3.95691784869808,31.318588601532,49.4050974342759,6.13182775141024,4.33697780373348,8.22089224335355,0.417470223323448,47.9843177948005,1158.91244872164,5.70219853672977,28.9463564586172,0,30
7.99563633262587,2.56119459688336,-3.79717794674195,31.312174267887,49.1800176085241,6.13481574079589,4.40012082337904,8.13415575047543,0.402204655315586,47.913047420967,1157.2042394708,5.73568313523943,28.9139864768218,0,30
7.99533335336596,2.57627747798459,-3.63822100001073,31.3082979007332,48.9529966361714,6.13740706017091,4.45312074263325,8.03834182338977,0.391154521303179,47.8699766748131,1156.5229247303,5.769061577154,28.883807446611,0,30
7.99558481776886,2.59110317134454,-3.48095458822479,31.306966921274,48.7017787895342,6.13978615708504,4.49579001770553,7.93407533085804,0.386194543199395,47.8551880141557,1158.29386084527,5.80196778233672,28.8628330012618,0,30
7.9963678570571,2.60540191307557,-3.32706094886095,31.3080716000766,48.4505303797847,6.14193814606682,4.52770870821001,7.82285096656648,0.387072096555471,47.867462223073,1161.48927550589,5.83380116746722,28.8553636318936,0,30
7.99765219774407,2.61883484170556,-3.17927963015694,31.311511310829,48.2155060387998,6.14373306181773,4.54864496488045,7.70698833836695,0.391498561469859,47.9056812314329,1164.79872076923,5.86380361494057,28.8609376806914,0,30
7.99942565694881,2.63118661841624,-3.0410157984839,31.3171525742695,47.9971101979369,6.14506252622664,4.55776218400467,7.58966076336435,0.397251340234789,47.9683619363275,1169.80185564187,5.89150144618543,28.8745297191094,0,30
8.00157484710556,2.64253740055783,-2.91436223975694,31.3249410934009,47.7944327877884,6.14598150989332,4.55678326494041,7.47212442376161,0.403703138592846,48.0549010377874,1176.09501340704,5.91705776899251,28.891234473255,0,30
8.00406899862022,2.65286589835859,-2.79837655248883,31.3343779734109,47.608444891388,6.14654929350939,4.54540910721005,7.35515981742924,0.410990542105367,48.1597552601209,1183.26792818842,5.94042912701541,28.9096784836455,0,30
8.006861438854,2.66216607608319,-2.69317034986517,31.345327154387,47.4397011510817,6.14689442953153,4.52359915404054,7.23857945707522,0.419225296029197,48.2814128265217,1190.98012785613,5.96160335106596,28.9301839604879,0,30
8.00988121268629,2.67046874307451,-2.5987086009095,31.3575827607268,47.2877122161473,6.1471153804859,4.49239583708891,7.12230775495004,0.428495374616148,48.4175862302979,1199.20742425588,5.98063895282671,28.9530227065221,0,30
8.01306619124082,2.67778898944742,-2.51459333589969,31.3708324826118,47.1521977750299,6.14725021571803,4.45296532302882,7.0069891729886,0.438630567977498,48.5648053623537,1207.80900350566,5.99755733437816,28.9784188222402,0,30
8.01635934665517,2.68411525238786,-2.4405982167325,31.3848029947383,47.0340027467375,6.14732002365719,4.40626721256677,6.89356353976132,0.449181394882942,48.7200332748696,1216.71750504735,6.01232187046568,29.0060265832165,0,30
8.01970366232365,2.68946060219539,-2.37677610832696,31.3992436196741,46.9334381584873,6.14733729332266,4.3536541325509,6.78304332089374,0.459605065387109,48.8804846630457,1225.71083046254,6.02494672302432,29.0348765029831,0,30
8.02304677991812,2.6938580242654,-2.32294022379813,31.413904018329,46.8505302188748,6.14731991228291,4.29663779690117,6.67659435634903,0.469589152134745,49.0433779814332,1234.56481783336,6.0354888690845,29.0637795833773,0,30
8.0263371413532,2.69735094299964,-2.27871324537864,31.4285545695159,46.7854873411442,6.14730693885201,4.23694257901701,6.57535104227981,0.479274738402239,49.2061618835098,1242.93898465334,6.04402622410707,29.0920426950269,0,30
8.02953247567677,2.70000329725545,-2.2436229391754,31.4429694440729,46.7374834936551,6.14732903678026,4.17650061940191,6.48056551819241,0.488806822281163,49.3663271563656,1250.72705777781,6.05068045466341,29.1199717533621,0,30
8.03254694562683,2.70178830727616,-2.2170004447733,31.4569637569355,46.7077366995129,6.14747244728187,4.11765082256653,6.39350106417521,0.497946988556123,49.5218195215052,1257.33288787177,6.05536420962679,29.1478850163609,0,30
8.03532106054988,2.70273356941468,-2.19909509926237,31.4701621151634,46.695293334427,6.14773978281278,4.06296050759056,6.3167459218289,0.506386350236141,49.6684679462596,1262.92953540555,6.05811000074739,29.1752492110236,0,30
8.03789907069365,2.70301464790785,-2.18961691565426,31.4823048271149,46.6967115640145,6.14804648962013,4.01317318497433,6.25257742324482,0.51458290493963,49.8033869679432,1267.99959891009,6.05930438557814,29.2013629578025,0,30
8.04039045309297,2.70279767532507,-2.1867990226105,31.4935863329176,46.7082518822531,6.14828291239371,3.96662926713918,6.19997220758484,0.523159813293546,49.9287370324181,1273.40443495584,6.05933999499751,29.2272259018197,0,30
8.0426667454305,2.7020228033506,-2.18897421550776,31.5044861655053,46.7339263362911,6.14855153337902,3.92676949123768,6.15560348264694,0.532637116124022,50.0498462833927,1277.14242492037,6.0580428594649,29.2542259764986,0,30
8.044703517123,2.70064516349853,-2.19674355875895,31.5144427554034,46.7718461631042,6.14891347528913,3.8947970447125,6.12351304999663,0.542510312339971,50.160475060038,1280.07981086658,6.05529805109922,29.2835477214767,0,30
8.04649667781614,2.69865237258255,-2.21056086635468,31.5233498761724,46.8212624610989,6.14932764974975,3.87099682224203,6.10535791106719,0.551791800186152,50.2594430685823,1282.5400170516,6.0510743316335,29.3141006410958,0,30
8.04805286445336,2.69610279460129,-2.23055756998008,31.5311902440371,46.8810129979905,6.14974983637353,3.85519016133861,6.10155439222211,0.56001995519722,50.3465582670793,1284.49803423919,6.04550529579608,29.3436849951663,0,30
8.04936552558623,2.69307711503859,-2.25615797202937,31.5379934077725,46.9496732742053,6.15019563366866,3.84736923313835,6.11134813336798,0.567167862117742,50.4221489752505,1285.75348157657,6.03877307363449,29.3712365805065,0,30
8.05042890568096,2.68966127470973,-2.28656315641285,31.5437311845055,47.0254317983866,6.15071577844486,3.84740655540031,6.13393238955121,0.573438208363655,50.4859020500608,1286.26918127272,6.0310731037363,29.396646890888,0,30
8.05125712531842,2.68593987865058,-2.3209207506232,31.5483788122106,47.1062451085407,6.15133900940071,3.85456120559422,6.16832730602351,0.579100725817227,50.5375423578957,1286.27198863805,6.0226047665991,29.420323231988,0,30
8.05186944227652,2.68197650194371,-2.35839003327237,31.5519983236265,47.190645310845,6.15205961745392,3.86791942210101,6.21295123886659,0.584263472634063,50.5777591514055,1285.90087600134,6.0135219805154,29.4428340880122,0,30
8.05227021074319,2.67783216379572,-2.39833976795012,31.554674110327,47.2772809578072,6.15288748379572,3.88690654258158,6.26625919005113,0.588736848976737,50.6074901147448,1285.2001494496,6.00396908053261,29.4643947079877,0,30
8.05247240049169,2.67354857041064,-2.44016226118214,31.5564253605191,47.3651806172586,6.15380655289869,3.91075374842546,6.32706880376372,0.592270893318585,50.6269484502121,1284.27286395876,5.99404900570884,29.4845491994921,0,30
8.05249127032806,2.66920405671925,-2.48344253398363,31.557308850349,47.4530295528003,6.15481246192701,3.93867591206805,6.3941962824091,0.594866440309772,50.6367650038776,1282.988944978,5.98394736019379,29.5026938557076,0,30
8.0523420959098,2.66486233137049,-2.52739298468879,31.5573913032751,47.5395491206797,6.15590865566554,3.96988098947264,6.46606889675684,0.596380692547939,50.6376811475011,1281.54965667076,5.97381676827108,29.5187836502718,0,30
8.05204118990209,2.66059614902025,-2.57137037634931,31.5567394723897,47.6236998694615,6.15710115419796,4.00360385301531,6.54125136582195,0.596723586880046,50.630438582108,1279.88990383642,5.96382983421163,29.5324458027081,0,30
8.05160536560424,2.65648360019953,-2.61463644899527,31.5554246091925,47.7042672922132,6.15839590876988,4.03914382505974,6.61824030201058,0.595949519778117,50.6158289910281,1277.99270306753,5.95417035474276,29.5434214869962,0,30
8.05105170123939,2.65259955310005,-2.65639510627568,31.5535201306039,47.7800587073809,6.15979989431514,4.07587206549022,6.69553893133542,0.594214719224738,50.594668117821,1275.86461668449,5.94501395574513,29.5517797327863,0,30
8.0503942176862,2.64902243714898,-2.69587937384489,31.5511005989963,47.8497559988744,6.16131818235624,4.11324254333357,6.77175143933511,0.591700319236509,50.5677844332922,1273.53411844601,5.93654326259581,29.5578280785806,0,30
8.04965810529959,2.64578126723131,-2.73228292082865,31.5482272115379,47.912909543091,6.16294314315053,4.15074015657245,6.84552546416222,0.588637899473213,50.5358579059766,1271.0754114106,5.92882915947703,29.5619413271714,0,30
8.04885707236611,2.64293041783619,-2.76530037412459,31.545009984586,47.9685708983067,6.16466211115255,4.18790493272718,6.91604053069705,0.585039112780578,50.5001109398443,1268.55206705126,5.92199898523848,29.5646213215391,0,30
8.04801148947171,2.64051802769461,-2.79436747378833,31.5415087667346,48.0159702304411,6.16645264304918,4.22428891713651,6.98227240651551,0.581099664815838,50.4612085192737,1266.01568868133,5.91616584389142,29.5658759198133,0,30
