Pdis,Psuc,T0,Tc,Tdis,Tret,Tsuc,Tsh,Tsup,CondFan,CprPower,Density,Cpr,Tamb,Tset
6,2.92803182339495,-66.8562457822183,-66.8562457822183,21.5510217973122,-273.15,0,66.8562457822183,-273.15,0,0,6.61608351884431,0,30,12
6.00456472898823,2.97894565208608,-1.70530256582424e-13,21.5716593574974,21.5747762845234,-100.450439978991,0.00447920591142292,1.70530256582424e-13,-99.128057914941,0,0,6.73175863808586,0,30,12
6.00896444042273,3.03800006341631,0.476745738829038,21.5965522100468,21.5976720334874,-36.8598860104906,0.0102565143884021,-0.472266532917615,-31.3669614066829,0,0,6.86594854330126,0,30,12
6.01340280330765,3.08108237624346,1.02193314067938,21.6205316340925,21.6207689215304,-13.4441717239574,0.0167708224013268,-1.01167662629098,-5.59726861542021,0,0,6.96383292883712,0,30,12
6.01778957666894,3.11351784193813,1.41455032522526,21.6447082709577,21.6435973417888,-4.82626172371732,0.0237946432147282,-1.39777950282394,3.50958312027609,0,0,7.03750880911038,0,30,12
6.02208470289282,3.13863193793559,1.70736683293484,21.6685906362118,21.6659488376211,-1.65108646079148,0.0312006659947315,-1.68357218972011,6.30340917706997,0,0,7.09453342810175,0,30,12
6.0262758863478,3.15832228813131,1.9324832612449,21.6919613090022,21.687759423537,-0.475424359584053,0.0389123048823876,-1.90128259525017,6.7915308066157,0,0,7.13922004979475,0,30,12
6.03036280391464,3.17379631921495,2.10801717391479,21.7147542624835,21.7090274180499,-0.0222785771199483,0.0468779682733498,-2.0691048690324,6.49950313564682,0,0,7.17431368319682,0,30,12
6.03434984080128,3.18590223267754,2.24537512169064,21.73696864761,21.7297756414336,0.170175975541042,0.0550602304360837,-2.19849715341729,5.98327945214834,0,0,7.20174307057445,0,30,12
6.03824219401815,3.19523441460712,2.35247738922936,21.7586291672733,21.7500311385178,0.261968173846412,0.0634333085503158,-2.29741715879328,5.43189627726088,0,0,7.22286001288259,0,30,12
6.04204609574314,3.20232847727139,2.43482713869389,21.7797648607932,21.7698263410615,0.321604300950469,0.0719741634097204,-2.37139383014357,4.91992771749813,0,0,7.23888293888028,0,30,12
6.04576704585362,3.20756116358571,2.49730368800351,21.8004103086202,21.7891898699897,0.369032340480544,0.080666533266708,-2.42532952459379,4.46301115196616,0,0,7.25066898226596,0,30,12
6.04941038316036,3.21124909330169,2.54331928238867,21.8205960367075,21.8081495080496,0.412101168941945,0.0894968156505911,-2.46265274912196,4.06217539812729,0,0,7.25893859014245,0,30,12
6.0529811583114,3.21365496974548,2.57571587969642,21.8403516261826,21.8267315384129,0.453558971699067,0.0984538403112651,-2.48621906404583,3.71282424756561,0,0,7.26428959040807,0,30,12
6.05648373027801,3.21498186689302,2.59683490115862,21.8597050298155,21.8449586448198,0.494335549906395,0.107529098199279,-2.49838106084735,3.4095092690506,0,0,7.26718415621078,0,30,12
6.05992269073922,3.21542299077884,2.60847734472918,21.8786803927707,21.8628547220034,0.534801035380895,0.116714666912628,-2.5009482465299,3.14611092781615,0,0,7.26806202085533,0,30,12
6.06330172440637,3.21511821184161,2.61234703141241,21.8973030678815,21.8804389449089,0.575058661425032,0.126004972185001,-2.49563236449978,2.91782672072395,0,0,7.26724155091286,0,30,12
6.06662448648959,3.21419547047575,2.60967345185469,21.9155934474445,21.8977303349596,0.615150428876575,0.135395080666399,-2.48366847966969,2.72011328623717,0,0,7.26501395990873,0,30,12
6.0698943632906,3.21276315948999,2.60157780080249,21.9335717221093,21.9147465142009,0.655087731031415,0.144880984635904,-2.46618272013609,2.54900502502926,0,0,7.26162596979693,0,30,12
6.07311448382889,3.21091351343365,2.58900791818974,21.9512565882158,21.9315037658017,0.69487225153199,0.15445944973925,-2.44412693355383,2.40105709510652,0,0,7.2572875215844,0,30,12
6.07628773402635,3.20872546483974,2.57276916152279,21.968665315004,21.9480171078703,0.734502859091606,0.164127895215813,-2.41830971178354,2.27328383042669,0,0,7.25217827408972,0,30,12
6.07941679083503,3.20626670120541,2.55355016649753,21.985813825265,21.9643004710528,0.773977845720935,0.173884296946937,-2.38942227128172,2.16309766054957,0,0,7.24645228496223,0,30,12
6.08250413167528,3.20359542919818,2.53194130715872,22.00271688332,21.9803667476478,0.813295620946519,0.183727107252992,-2.35805701021178,2.06825485917523,0,0,7.24024202590854,0,30,12
6.0855520552327,3.20076170169321,2.50845039774981,22.0193881491016,21.9962278998327,0.852454898894223,0.193655186786714,-2.32472329049682,1.98680954629555,0,0,7.23366140353522,0,30,12
6.08875627934571,3.19780577149473,2.48351443207298,22.035840293269,22.0129024276986,0.891454759890109,0.203667771682433,-2.28985924528627,1.91718281056689,0,0,7.22680201717867,0,30,12
6.09213231385264,3.19476883668315,2.4574850564747,22.0531294054819,22.0304710432124,0.930294462037693,0.213764301975914,-2.25381728479226,1.85774530656965,0,0,7.21975760263783,0,30,12
6.09547684255512,3.19168325066769,2.4307231289028,22.0713381207336,22.0478757050216,0.968983185254899,0.223944660010886,-2.21695882692688,1.80720603151707,0,0,7.21260176304425,0,30,12
6.09879309573203,3.1885745383651,2.40351247417698,22.0893693896944,22.0651332232407,1.00752096864841,0.23420891123601,-2.17956781416609,1.76453659697972,0,0,7.20539256047005,0,30,12
6.10208248264535,3.18546632138393,2.3760774502685,22.1072408355997,22.0822509315573,1.0458918404853,0.244557131384113,-2.14186853903249,1.72877599812682,0,0,7.19818372108802,0,30,12
6.10534580508072,3.18237888510604,2.34862626362843,22.1249602434045,22.0992330024002,1.0840936859247,0.254989583819281,-2.10406913224432,1.69908753731266,0,0,7.19102137482485,0,30,12
6.108583466874,3.17932953907637,2.32133824577636,22.1425321134404,22.1160815372992,1.12213260486891,0.265506727875845,-2.06634866195708,1.67474275269183,0,0,7.18394487595449,0,30,12
6.11179596270869,3.17633302275904,2.29436693026702,22.1599587958021,22.1327991105479,1.16001098511595,0.276109132292618,-2.02886020239117,1.65510763282964,0,0,7.17698772801346,0,30,12
6.11498361090658,3.17340188009004,2.26784353923676,22.1772431241367,22.1493873786675,1.19773003843602,0.286797455561157,-1.99173440694415,1.63963009222482,0,0,7.17017843669852,0,30,12
6.11814686768739,3.17054671979795,2.24188020627849,22.1943869779394,22.1658487157895,1.2352906360058,0.297572428732337,-1.95508275071734,1.62782907636722,0,0,7.16354110284036,0,30,12
6.1212860406994,3.16777645278938,2.21657220000384,22.2113929736667,22.1821847228907,1.27269357823684,0.308434840023835,-1.9189997712715,1.61928517301436,0,0,7.15709596309392,0,30,12
6.12440156915313,3.16509850229528,2.19199995462992,22.228262924174,22.1983976855881,1.30993967738158,0.319385520987737,-1.88356511460609,1.61363248442899,0,0,7.15085986857056,0,30,12
6.12749375404078,3.16251900274564,2.16823086917185,22.2449993449091,22.2144891702213,1.34702977866414,0.33042533445132,-1.84884534818411,1.61055160541054,0,0,7.14484673772328,0,30,12
6.13056301839895,3.16004295161145,2.14532101633279,22.2616040042128,22.2304613782388,1.38396476193151,0.34155516378263,-1.81489568188147,1.60976353432937,0,0,7.13906790219388,0,30,12
6.13360965536516,3.15767431609419,2.12331644279664,22.2780793215881,22.2463158351052,1.42074553746676,0.352775903021495,-1.78176127901401,1.61102434396889,0,0,7.13353234992567,0,30,12
6.13663407131018,3.15541641159144,2.10225407573733,22.2944270149006,22.2620546555417,1.45737304067444,0.36408845030337,-1.74947817271584,1.61412073338045,0,0,7.12824758601578,0,30,12
6.13963655045313,3.15327254031565,2.08216505432921,22.3106494056248,22.2776793186021,1.49384822698886,0.375493710494425,-1.71807660402584,1.61886668585487,0,0,7.12322108467277,0,30,12
6.14261748227522,3.15124563344093,2.06308039144403,22.3267481559174,22.2931918511156,1.53017206760182,0.386992599341681,-1.68758668094961,1.62510071949146,0,0,7.11845947571337,0,30,12
6.14557714142245,3.14933728040824,2.04502777699355,22.3427254885688,22.3085936823182,1.56634554562004,0.398586032766104,-1.65803517765187,1.63268221631364,0,0,7.11396633834025,0,30,12
6.14851590046931,3.14754793694172,2.0280229100041,22.3585830069837,22.323886751058,1.60236965248339,0.410274907260828,-1.62943687723799,1.6414869800999,0,0,7.10974267470481,0,30,12
6.15143402406182,3.14587753196022,2.01207131948075,22.3743228357047,22.3390724345317,1.63824538458186,0.422060088154865,-1.60179641221993,1.65140438546166,0,0,7.10578828995136,0,30,12
6.15433186806694,3.14432560637301,1.99717375314339,22.3899465175541,22.3541525846429,1.67397374049017,0.43394240490818,-1.57511366498852,1.66233615977995,0,0,7.10210210792365,0,30,12
6.15720968700215,3.14289137651756,1.98332740547568,22.4054560804014,22.3691285258803,1.70955571867029,0.445922648002011,-1.5493850005675,1.67419522179614,0,0,7.09868231551224,0,30,12
6.1600678204337,3.14157378540849,1.97052647771068,22.4208530062365,22.3840020253197,1.74499231567802,0.458001566422297,-1.52460382970867,1.68690438529188,0,0,7.09552647926318,0,30,12
6.16290651280241,3.14037154122546,1.95876263157504,22.4361392289192,22.3987743550117,1.78028452460597,0.470179865707109,-1.50076106515274,1.70039514812584,0,0,7.09263163295405,0,30,12
6.16572608788817,3.13928313822372,1.94802533111192,22.4513161703038,22.4134471998813,1.8154333338673,0.482458206142724,-1.47784546540481,1.71460658593759,0,0,7.08999432520385,0,30,12
6.16852678022242,3.13830689591728,1.93830202904473,22.4663856734512,22.4280217804112,1.85043972610993,0.49483720132497,-1.45584382290201,1.72948437075468,0,0,7.08761070859497,0,30,12
6.17130889838079,3.13744099711742,1.92957851758848,22.4813491013718,22.4424997024046,1.8853046773981,0.507317417155775,-1.43474131626351,1.74497993737805,0,0,7.08547662617177,0,30,12
6.17407266723372,3.13668350564514,1.92183927025144,22.4962082098727,22.4568821360695,1.92002915647402,0.519899371239148,-1.41452185309566,1.76104976821131,0,0,7.08358765172873,0,30,12
6.17681838077716,3.1360323865406,1.91506760290326,22.5109643048232,22.4711706113375,1.95461412423651,0.532583532376293,-1.39516823166412,1.77765475680837,0,0,7.08193913576418,0,30,12
6.17954625452398,3.13548553108613,1.90924585777492,22.5256190585205,22.4853662497203,1.98907650177659,0.545370475303855,-1.37666232539863,1.79476001203386,0,0,7.08052626029865,0,30,12
6.18225656853798,3.13504077070713,1.90435563102369,22.5401737216674,22.4994705086478,2.02340658711523,0.558260570193283,-1.35898515571984,1.81233442759935,0,0,7.07934407460465,0,30,12
6.18494952931491,3.13469587659675,1.90037790125029,22.5546298868895,22.5134844627074,2.05758579728302,0.57125398337638,-1.34211733105701,1.8303491273906,0,0,7.07838749434713,0,30,12
6.18762540363604,3.13444857748822,1.89729303056436,22.5689887518718,22.5274095002077,2.09162452046945,0.584350987937626,-1.32603904718798,1.84877695992162,0,0,7.07765133783759,0,30,12
6.19028438933253,3.13429658025901,1.89508092810723,22.583251833393,22.5412466506464,2.12552682768319,0.597551808587355,-1.31072994016961,1.86759336163652,0,0,7.07713037491537,0,30,12
6.19292674054517,3.13423757672125,1.8937212390544,22.597420278311,22.5549972365519,2.15929467773952,0.610856622195342,-1.29616943046705,1.88677620397368,0,0,7.076819342364,0,30,12
6.19555264680708,3.13426925155687,1.89319341010327,22.6114955313157,22.5686622442396,2.19292931911502,0.624265558459115,-1.28233678790792,1.90630518279141,0,0,7.07671296192502,0,30,12
6.19816235025193,3.13438928977355,1.89347676516769,22.6254786906834,22.5822429337538,2.22643175726131,0.637778700615002,-1.26921120670858,1.92616167489007,0,0,7.07680595722047,0,30,12
6.20075603248412,3.13459538294632,1.89455057672188,22.6393711327025,22.5957402501494,2.25980291039036,0.651396086247246,-1.25677187610688,1.94632847304985,0,0,7.07709306791344,0,30,12
6.20333392424545,3.13488523499656,1.89639412617765,22.6531739093085,22.6091553941884,2.29304366150103,0.665117708094044,-1.24499803993041,1.96678943098567,0,0,7.07756906281639,0,30,12
6.20589619957725,3.13525656731096,1.8989867599937,22.6668883319562,22.6224892715682,2.32615487571866,0.678943515023093,-1.23386905189966,1.98752939863527,0,0,7.0782287514962,0,30,12
6.20844307842346,3.13570712465912,1.90230793972893,22.6805154084414,22.6357430268592,2.35913740617872,0.692873413006907,-1.22336442470584,2.00853422445653,0,0,7.07906699769305,0,30,12
6.21097472762068,3.13623467666363,1.90633729906449,22.6940563888203,22.6489175282664,2.39199209603345,0.706907266181588,-1.21346388605758,2.0297907097916,0,0,7.0800787226333,0,30,12
6.21349135688539,3.13683701804238,1.91105466086617,22.7075122388937,22.6620138671373,2.424719779241,0.721044897831462,-1.20414739468458,2.0512865285308,0,0,7.08125890555467,0,30,12
6.21599312619744,3.13751197479077,1.9164400430887,22.7208841506073,22.6750328759945,2.45732128088014,0.735286091462285,-1.19539514525724,2.0730100345944,0,0,7.08260259772397,0,30,12
6.21848023559122,3.13825740776901,1.92247371760652,22.7341730498401,22.687975595801,2.48979741739061,0.749630591893776,-1.18718762614424,2.09495017517105,0,0,7.08410493055805,0,30,12
6.22095283852607,3.1390712132671,1.92913624562533,22.7473800735639,22.7008428251471,2.52214899670531,0.764078106420016,-1.17950565373155,2.11709646830326,0,0,7.08576111687933,0,30,12
6.22341112587466,3.13995132438535,1.93640848587603,22.7605061097311,22.7136355573189,2.55437681843597,0.778628305915163,-1.17233037945601,2.13943895048391,0,0,7.08756645402402,0,30,12
6.22585524489903,3.14089571231017,1.944271609905,22.773552243326,22.7263545586564,2.58648167399161,0.793280825993975,-1.16564330398984,2.16196813338161,0,0,7.08951632671233,0,30,12
6.22828537780494,3.14190238733413,1.95270711623687,22.7865193262854,22.7390007773441,2.61846434676056,0.808035268127014,-1.15942629024289,2.18467496387979,0,0,7.09160620933839,0,30,12
6.23070166596662,3.14296939967966,1.96169684206154,22.7994083944406,22.7515749490819,2.6503256122275,0.822891200803952,-1.15366157393453,2.20755078942875,0,0,7.09383166781376,0,30,12
6.23310428339263,3.14409484009261,1.9712229729833,22.8122202655376,22.7640779793969,2.68206623815604,0.837848160647638,-1.14833177217935,2.23058732731801,0,0,7.09618836088918,0,30,12
6.23549336519155,3.14527683954168,1.98126805053386,22.8249559289404,22.7765105713833,2.71368698470411,0.852905653560185,-1.14341988988622,2.25377663708429,0,0,7.09867203944529,0,30,12
6.23786907699014,3.14651357020675,1.991814971537,22.8376161663749,22.7888735869495,2.74518860460341,0.868063155816913,-1.13890931797681,2.2771110959963,0,0,7.10127854871174,0,30,12
6.2402315491588,3.14780324660558,2.00284699881155,22.8502019199465,22.8011677045328,2.77657184327228,0.883320115211575,-1.13478384299464,2.30058337911254,0,0,7.10400383080006,0,30,12
6.24258094056336,3.14914412461825,2.01434777293935,22.8627139436202,22.8133937508583,2.80783743899201,0.89867595214713,-1.13102765772777,2.32418644192569,0,0,7.10684392246286,0,30,12
6.24491737669053,3.15053450134079,2.02630130512557,22.8751531409995,22.8255523789489,2.83898612301471,0.914130060743389,-1.12762535297844,2.34791350297246,0,0,7.10979495473663,0,30,12
6.24724100954041,3.15197271498548,2.03869197731831,22.8875202376613,22.8376443798011,2.87001861973522,0.929681809890212,-1.12456191657492,2.37175802826226,0,0,7.11285315269123,0,30,12
6.24955195981079,3.15345714458465,2.05150454260894,22.8998160983057,22.8496703815167,2.90093564679358,0.945330544323838,-1.12182273271873,2.39571371779255,0,0,7.11601483473359,0,30,12
6.25185037296143,3.15498620967007,2.06472412375149,22.9120414207616,22.8616311410565,2.93173791524043,0.961075585648189,-1.11939357942765,2.41977449358393,0,0,7.11927641185666,0,30,12
6.25413636513345,3.1565583698506,2.07833621134318,22.9241970326972,22.8735272628098,2.96242612963397,0.976916233374823,-1.117260625695,2.44393448872415,0,0,7.12263438665732,0,30,12
6.25641007559487,3.15817213100986,2.09232666098455,22.9362836055535,22.8853594715164,2.99301683068802,0.99285191990316,-1.11541042760973,2.46818840574468,0,0,7.12608536532575,0,30,12
6.25867161616398,3.15982604242225,2.10668174920903,22.9483019319489,22.8971283490697,3.0235001490941,1.00888190306802,-1.11382982930587,2.49253154088478,0,0,7.12962605519918,0,30,12
6.26092112025302,3.16151868071966,2.12138814843195,22.9602526582967,22.9088345897364,3.05385740705583,1.02500526765022,-1.11250624536393,2.51695863762814,0,0,7.13325322833406,0,30,12
6.2631586955758,3.16324865452811,2.13643278499876,22.9721365440719,22.9204787540507,3.08409867159054,1.04122123474474,-1.11142751734855,2.54146376996096,0,0,7.13696372788582,0,30,12
6.26538446999926,3.16501461375164,2.15180288109406,22.9839542119298,22.9320615074219,3.1142277460529,1.05752900807818,-1.11058164634932,2.56604149825449,0,0,7.14075449123718,0,30,12
6.26759854733657,3.16681524588269,2.16748603772379,22.9957063899649,22.9435833900855,3.14424634184246,1.07392777496955,-1.10995702964561,2.59068696641418,0,0,7.14462254159978,0,30,12
6.26980105020703,3.16864927466957,2.18347020226037,23.0073936782591,22.9550450401427,3.17415546933722,1.09041670720291,-1.10954242729082,2.61539553282927,0,0,7.14856498496983,0,30,12
6.27199207871928,3.17051545949481,2.19974365689416,23.0190167752129,22.9664469785507,3.20395590153515,1.10699496191455,-1.10932694969125,2.64016278439692,0,0,7.1525790086976,0,30,12
6.27417175052669,3.17241259502127,2.21629501333871,23.0305762594725,22.9777898175686,3.23364832873142,1.12366168242528,-1.10930005142416,2.66498452612916,0,0,7.15666188066591,0,30,12
6.27634016221838,3.17433950988737,2.23311320985113,23.0420728013385,22.9890740598383,3.26323341010618,1.14041599903521,-1.10945152742585,2.68985662397694,0,0,7.16081094631052,0,30,12
6.27849742674759,3.1762950649544,2.25018749976323,23.0535069590933,23.0003002931596,3.29271179103279,1.15725702978659,-1.10977150072802,2.71477494578733,0,0,7.16502362462461,0,30,12
6.28064363735866,3.17827815495939,2.26750743601309,23.064879376441,23.0114690027685,3.32208410883533,1.17418385259072,-1.1102504062265,2.73973552318728,0,0,7.16929741227982,0,30,12
6.28277890255572,3.18028771577403,2.28506288579786,23.0761905923116,23.022580753312,3.35135099482994,1.19119531646146,-1.11087903320714,2.76473458411994,0,0,7.1736299026414,0,30,12
6.28490331240446,3.18232272088549,2.30284409471852,23.0874412252302,23.0336360134849,3.38051307501871,1.20829003827936,-1.11164877825706,2.7897685060683,0,0,7.17801877782358,0,30,12
6.28701697119756,3.18438217196747,2.32084165538015,23.0986317957357,23.0446353260177,3.40957097043059,1.22546659473204,-1.11255161710079,2.81483380858174,0,0,7.18246178470009,0,30,12
6.28911996597865,3.18646509886556,2.33904642379804,23.1097628985161,23.0555791438788,3.43852529724091,1.24272355663311,-1.113579829066,2.83992712959463,0,0,7.18695673440417,0,30,12
6.29121239705179,3.18857055961699,2.35744951915996,23.1208350366228,23.0664679890425,3.46737666691274,1.26005948812559,-1.11472596252685,2.865045215853,0,0,7.19150150237937,0,30,12
6.29329434858573,3.19069763993937,2.37604232384729,23.1318487821638,23.0773022995163,3.4961256862465,1.27747294603563,-1.1159828357217,2.89018491896496,0,0,7.19609402722265,0,30,12
6.29536591710593,3.19284545257658,2.3948164787289,23.142804621554,23.088082577611,3.52477295749497,1.29496247931411,-1.11734353269327,2.91534319313502,0,0,7.20073230920262,0,30,12
6.29742718404557,3.19501313668483,2.41376387717003,23.1537031055058,23.0988092470984,3.55331907840275,1.31252662859549,-1.11880139785592,2.94051709214529,0,0,7.20541440886731,0,30,12
6.29947824234964,3.19719985717686,2.4328766593768,23.1645447046013,23.109482791657,3.58176464231224,1.33016392582408,-1.12035003078131,2.96570376706569,0,0,7.21013844555617,0,30,12
6.30151917084754,3.19940480410535,2.45214720635323,23.1753299492739,23.1201036215085,3.6101102382006,1.34787289397798,-1.12198328052915,2.99090040442127,0,0,7.21490259599985,0,30,12
6.30355005909058,3.20162719202199,2.47156813419167,23.1860592950325,23.1306722026709,3.63835645078234,1.36565204684678,-1.12369524021369,3.01610424561051,0,0,7.21970509286442,0,30,12
