Pdis,Psuc,T0,Tc,Tdis,Tret,Tsuc,Tsh,Tsup,CondFan,CprPower,Density,Cpr,Tset,Tamb
8.40444266324327,3.86499666229411,7.91546003781224,33.0705903685628,38.5399108570007,19.8661971809307,14.568337341073,6.65288564721897,12.0151892558417,67.4510040951424,992.415499364,8.51497083008778,33.2316908157724,12,20
8.4064395045878,3.86500083231329,7.91542288043877,33.070616060049,38.5512258326913,19.866207835672,14.5683291713615,6.65291446063424,12.0151757131109,13.4902579112199,992.113673587156,8.51498020823933,33.2319127555436,12,20
8.42584706124208,3.86523695489316,7.91545465283519,33.0790644167066,38.657143113812,19.8662186049696,14.5683184527096,6.65287451852635,12.0152612913968,13.5090320371258,990.601864529728,8.5155041576586,33.232137880491,12,20
8.47811819144142,3.86642611884922,7.91725368582649,33.1610965978819,38.9280771836035,19.8662288053191,14.5675065436949,6.65106476688311,12.0150501894155,13.6913257730709,991.496790112917,8.518154762498,33.2325652326776,12,20
8.5499819282245,3.86925328324501,7.92631272611283,33.3813328702303,39.2770620097972,19.8662350101697,14.563149679181,6.64119381758206,12.0145676315799,14.1807397116229,997.998608667453,8.5244945429107,33.2323881339861,12,20
8.63106147561838,3.87419781119641,7.94784149802865,33.6824594844946,39.644023298232,19.8662485231787,14.5520397222786,6.61530818115239,12.0158924799415,14.8499099655435,1007.93457304749,8.53563761654308,33.2316529719924,12,20
8.71604043092976,3.8812208714001,7.98546506515601,34.0199274295005,40.0006621161699,19.8662871460759,14.5313982255452,6.5665746571226,12.021265977797,15.5998387322234,1020.78240857688,8.55154252888549,33.2346008241749,12,20
8.80098148966389,3.88982663711645,8.03884146938685,34.3710781492024,40.3303809222333,19.8662983263608,14.4986583417158,6.49255675615836,12.0307324368727,16.3801736648942,1037.33487873435,8.57115142020201,33.2458425124406,12,20
8.88243066876479,3.89921238492387,8.10414621406488,34.71951086328,40.6232412744332,19.8661378815758,14.451771051061,6.39451212765096,12.0431499223183,17.1544685850666,1057.83586299038,8.59271780219237,33.2655502587754,12,20
8.95762110052172,3.90860378190667,8.17524417258744,35.0512548471535,40.8734806404338,19.8656731963245,14.3887143580326,6.27652687847353,12.0567533762959,17.8916774381188,1081.54807588914,8.61455765398194,33.2914872428813,12,20
9.02585073155358,3.91745520020514,8.24625423615095,35.3554843854632,41.0858973945412,19.8648631762102,14.3104922647923,6.1424601218817,12.0701569303787,18.5677430788072,1107.3290920687,8.63544595923336,33.320128805434,12,20
9.08646971674342,3.92542824355723,8.31306225766269,35.6298940614737,41.2625161238678,19.8637838186328,14.217374244092,5.99743000712959,12.0828214536767,19.1775423588304,1133.25135733824,8.65462837975918,33.3486872226494,12,20
9.14024292189203,3.93233422598396,8.37314195227009,35.8723908308825,41.4140011484658,19.8625246577298,14.11275244764,5.84423229182192,12.0947863426491,19.7164240686278,1159.09118313851,8.67163226764732,33.376071556467,12,20
9.1875421530899,3.93806376600005,8.42510571030198,36.0864872750891,41.5482816505347,19.8612366850495,14.0002338655388,5.68764673733801,12.106361916157,20,1183.68431535984,8.68615657100192,33.4023597040416,12,20
9.22904361545832,3.94251112482925,8.46816452346604,36.2740272311827,41.6716166859871,19.8600268847464,13.8849832177926,5.53206934207276,12.1177480047885,20,1205.84660395923,8.69788246876831,33.4281859164928,12,20
9.26631378200753,3.94559875698348,8.50155449044473,36.4379829719649,41.7868454161352,19.8588867995006,13.7728739653058,5.3834287273479,12.1288411972863,20,1226.06607968375,8.70654156452008,33.4539649410342,12,20
9.30451325080585,3.94739592459019,8.52471896696909,36.5847513714343,41.9319281739129,19.8577776426962,13.668883771351,5.2481549983367,12.1394930544025,20,1243.82359306132,8.7122056240709,33.4794885094332,12,20
9.34382381651802,3.94799462443728,8.53819556436162,36.7347200655386,42.1063877861121,19.8567213984294,13.5787349542411,5.13068820698936,12.1495356131094,20,1259.71061870803,8.71498509356781,33.5044481576849,12,20
9.37872286496102,3.9473091776793,8.54268405362956,36.8885689680445,42.2850601024271,19.8557260064686,13.5069053307198,5.03605090061154,12.1591730106865,20,1272.82264572325,8.71461577137354,33.5284854614294,12,20
9.41786077770814,3.94545030040335,8.53754517437471,37.0247459066711,42.5119917236608,19.8548012258818,13.4574545071519,4.96936015634509,12.1687038301816,20,1281.05280881045,8.71127737495868,33.5520109039719,12,20
9.45775919338326,3.94244108762541,8.52360551149155,37.1770111759544,42.7615005550846,19.8539567101054,13.432550628712,4.9338489956603,12.1777637116303,20,1289.12496400823,8.70498608183066,33.5756417435686,12,20
9.49318623890152,3.93823860262538,8.50102888667686,37.3317469477261,43.0109632047709,19.8531681872434,13.4331328948458,4.93152174203516,12.1863871268317,20,1295.03556705608,8.69563189494056,33.5986112492826,12,20
9.52508227269015,3.9330078298006,8.46947770876136,37.4687314354576,43.2609064874742,19.8524363643394,13.4596825668191,4.9636551860844,12.1951974624134,20,1297.18949498843,8.68357543562255,33.6209760691554,12,20
9.55411777987135,3.92690211549833,8.43017048181241,37.5917347733134,43.5111593761193,19.8517774121331,13.5118836111583,5.02951208500673,12.2048730454944,20,1296.11240510535,8.6691650019953,33.6440443398064,12,20
9.58074399798898,3.92009004835777,8.38423789148891,37.7034382593708,43.7616960066213,19.8511661222604,13.588080244821,5.12764571966943,12.215258361932,20,1292.93820091905,8.65280469243943,33.6692762047828,12,20
9.60523954946911,3.91274761917164,8.33292708854674,37.8056491162329,44.0108423350405,19.8505597122304,13.686087520074,5.25515315627422,12.2253999823236,20,1288.55277917819,8.63492360093782,33.6963879925466,12,20
9.62782971571096,3.90490456830053,8.27754512338942,37.8994927725394,44.2570897933794,19.8499146471999,13.802417761427,5.40854239668454,12.2350872586352,20,1283.36614246315,8.615646346432,33.7233741856799,12,20
9.64862473329185,3.89664821746202,8.21829937720986,37.9858777100222,44.4970312607102,19.8492459386584,13.9335077638175,5.58411838421716,12.243231208253,20,1277.77208068378,8.59522633959809,33.7497736241021,12,20
9.66774235689818,3.88813522926323,8.15583333979185,38.0652636029366,44.728289138427,19.8485888240421,14.0752116228109,5.77767442402569,12.2487735787327,20,1272.11400698698,8.57407956540606,33.7732073194812,12,20
9.68527959555786,3.8795935693568,8.09131970522537,38.1381327456623,44.9484157629407,19.8480015770136,14.2234950857853,5.98389191758548,12.2510050640671,20,1266.37023404621,8.55277749938555,33.7912911409001,12,20
9.70132309350367,3.87130344845976,8.02648027817406,38.2048830040945,45.1546237811893,19.8475695126281,14.3747026108009,6.1970148076112,12.2497669208461,20,1260.29603685044,8.53200028870729,33.802333472103,12,20
9.71595336799886,3.86355699307965,7.96344593020115,38.2658683729087,45.343939487442,19.8473831510414,14.5256768893299,6.41125668059971,12.2452785705083,20,1253.96004735039,8.51244527561106,33.8058068006375,12,20
9.72923199544182,3.85668349707584,7.90445212315041,38.3214157687922,45.5137967556971,19.8475238304197,14.6735996550125,6.62122476617952,12.2381298968448,20,1247.37856172055,8.49488559742806,33.8020132988327,12,20
9.74127168664872,3.85092740688512,7.85203071762527,38.3717769861364,45.6625613294682,19.8480160547495,14.8161616691646,6.82156893738727,12.2292095443187,20,1240.46582256989,8.47989708870108,33.7920976290966,12,20
9.75215939570412,3.84646273806488,7.80807638591494,38.4173947750635,45.7884842222873,19.8488492679337,14.9513230631734,7.00808528324967,12.2189494456202,20,1233.48350237491,8.46789450666945,33.7779119177665,12,20
9.76187464492486,3.84351777842591,7.77394895998697,38.458611338103,45.8883168321435,19.8499413313972,15.0757689548449,7.17737410318648,12.2077375680638,20,1227.0920450377,8.45943231260427,33.760354109461,12,20
9.77058987258145,3.84213187583504,7.75142145349525,38.4953602831699,45.9627276234833,19.8512099537911,15.1879936635336,7.32434750134968,12.1959390332428,20,1221.04793675006,8.45461794070902,33.7402542978124,12,20
9.77844980191129,3.84226823164026,7.74081541083126,38.5283031924404,46.0122134230031,19.852606750296,15.2865833580806,7.44717825270232,12.183486214893,20,1215.66237219933,8.45338911940337,33.7184155386956,12,20
9.78574751930587,3.84366810954072,7.74185904487246,38.5579942294007,46.0421185102178,19.8542266637622,15.375246118319,7.54472431320818,12.169991285338,20,1209.78410971578,8.45511315016734,33.6946964844719,12,20
9.7923945278728,3.84653833680956,7.75257173259706,38.5855454680849,46.0467916975732,19.855983226825,15.4485924529796,7.62267438572195,12.1552759585199,20,1205.5751077784,8.46033039965492,33.6682434240671,12,20
9.79848112389444,3.85093364632176,7.77452708007212,38.6106266547255,46.027539106654,19.8577723084085,15.5048733501933,7.67406537290748,12.1409232121191,20,1202.30663293726,8.4691883498658,33.6386623741715,12,20
9.80410679497104,3.8567875911192,7.80812405831216,38.6335820296072,45.9852578904613,19.8596105467835,15.5432290469615,7.69674929188113,12.1286242242693,20,1200.13840789348,8.48155311867103,33.6094861929573,12,20
9.8093746111998,3.86387693011701,7.85282513325944,38.6547895278386,45.9221252270573,19.8614753468959,15.5628789086523,7.69040391370203,12.1191528013016,20,1199.59638498192,8.49694330457382,33.5845282249132,12,20
9.81438788839881,3.8719345927928,7.9068904193918,38.6746397163271,45.8410542828332,19.8632930353708,15.5634366369199,7.65598848926049,12.11265765464,20,1201.11402961871,8.51477511694437,33.5655852594298,12,20
9.81924661422619,3.88063422112917,7.96824849139045,38.6935233221617,45.745511024993,19.8649268528711,15.5440917873835,7.59518814552945,12.1088681433768,20,1205.10438583308,8.53434071422824,33.5530638083749,12,20
9.82404721690681,3.88965914525101,8.03438565641682,38.7118178696393,45.6391179895209,19.8662801154923,15.5046098350282,7.50970613096666,12.1074440400859,20,1211.42583713065,8.55494504149619,33.5464288580389,12,20
9.82887201202955,3.89872666162548,8.10287625752102,38.7298868948815,45.5259770555125,19.8673130583892,15.4452829591286,7.40173357750717,12.1081533239604,20,1220.3688101104,8.57596001168123,33.5449791181608,12,20
9.83378875947221,3.90757694511222,8.17156797961974,38.7480403026409,45.4104724874472,19.8680319556949,15.3669628386629,7.27371497950884,12.1108621272331,20,1231.5548418087,8.59679911606037,33.5482450264436,12,20
9.83885364669715,3.91600706160565,8.23849648414728,38.7665328042726,45.2967763208923,19.8684532888652,15.2705101555068,7.12846635451558,12.1150030358418,20,1244.51378833272,8.61700121016777,33.5559710386792,12,20
9.84409058275368,3.92382269501144,8.30214000547954,38.7855752236921,45.1887079543528,19.8686192046871,15.1596529704129,6.96837015002723,12.1203159027003,20,1259.0311317412,8.63607811020941,33.5669381795163,12,20
9.84951887785335,3.93077524677644,8.36105107465085,38.8052567593746,45.0909831956827,19.8685648942377,15.0365921709666,6.79860189576203,12.1270046857122,20,1274.90750906668,8.65344444226185,33.5806011637933,12,20
9.85513265407832,3.93669586130708,8.41338133325127,38.8256491715001,45.0077149098003,19.8683340279629,14.9047978219742,6.62321083771536,12.1346654170846,20,1291.19789931935,8.66867032270797,33.5974431170326,12,20
9.86091512481204,3.9414471871089,8.45788875313514,38.8467295085073,44.9414920312749,19.8679548116821,14.768214167938,6.44690906883909,12.142709016875,20,1307.20413386482,8.68138710896355,33.6166046411147,12,20
9.86682893239908,3.94496965902396,8.49356925594032,38.86843389161,44.8941760056169,19.8674571359209,14.6312571642691,6.27464491199765,12.1505379796728,20,1322.59083988809,8.69139027456528,33.6368074968014,12,20
9.8728090321741,3.94718642862045,8.52000038094934,38.8906213673891,44.8691299172988,19.8669170664752,14.4996111318907,6.11125678331979,12.1576515851981,20,1335.71620750755,8.69841605209433,33.6567396605664,12,20
9.8787738856521,3.94813587330328,8.53662483755477,38.9130474124966,44.8658596994198,19.8663788810021,14.3785519537527,5.96298629433591,12.1640117424415,20,1347.05575656809,8.70246256852474,33.6752861712363,12,20
9.88464345630558,3.94792329358433,8.54374292923353,38.9354061291921,44.8848188602037,19.8658827469549,14.2727861126401,5.83480902451913,12.1699160694985,20,1355.98901905198,8.70368583299487,33.6923458078702,12,20
9.89043382820556,3.94671424436268,8.54214930914253,38.9573977987935,44.9224411796756,19.8653850369977,14.1809180084251,5.73063680349753,12.1759817968228,20,1363.63569106607,8.70247403359989,33.7085633704688,12,20
9.89609785849255,3.94453850846892,8.53308433332882,38.9790831316892,44.9799319676334,19.8649039944246,14.1057848621733,5.64783367509625,12.1827083016714,20,1368.95283954471,8.69884669108757,33.7253069236416,12,20
9.90153759797292,3.94146139017906,8.51676617923812,39.000286090504,45.0568577344736,19.8645071484094,14.0533522084898,5.5890186829352,12.1905708288054,20,1370.389236937,8.6928526617719,33.7437026831431,12,20
9.90669098460247,3.93747804959867,8.49367586591694,39.0206408583459,45.1504994046006,19.8641712623904,14.0254634348017,5.55967634257286,12.1994550318468,20,1369.42505439262,8.68445183194508,33.7648426560621,12,20
9.91150939736905,3.93262017324067,8.46376492542498,39.0399163930111,45.2582965022325,19.8638385488097,14.0223570086893,5.5616985093767,12.2088961584199,20,1366.53945557744,8.67371164755019,33.788516344397,12,20
9.91596038396204,3.9269549211681,8.42725580503327,39.0579321980818,45.3774413254607,19.8634567555716,14.0428242141969,5.59510120365604,12.218307611553,20,1362.18039370506,8.66080213125202,33.8137236174594,12,20
9.91999843019228,3.92066958804667,8.38463537618054,39.0745683759309,45.5058804422807,19.8630238204419,14.0856841639794,5.65818883801632,12.2265178365341,20,1356.65886569531,8.64616011758498,33.8391718442405,12,20
9.92360542709633,3.91387799099392,8.33729502670343,39.0896562845008,45.6394829204253,19.8625607009631,14.1482435203315,5.74838913727592,12.2334279849806,20,1350.01018610723,8.63008351967663,33.8622204922297,12,20
9.92677086564208,3.90672319835369,8.28607637861654,39.1031297072545,45.7747445830719,19.8621265442352,14.2271553451287,5.86216714171496,12.239078883054,20,1342.76251693398,8.61294542852681,33.8826004382725,12,20
9.92947173537275,3.89937505908855,8.23204524208847,39.114950724191,45.9086910008032,19.8617873563165,14.3195043707791,5.99511010304019,12.2431878069789,20,1335.02535526525,8.59517109763791,33.9003514894791,12,20
9.93169963067649,3.8920161217834,8.1764752925518,39.1250346185545,46.0383039956878,19.8615866331252,14.4220083448423,6.1430290782273,12.2453611175811,20,1327.05252280029,8.57721915607464,33.9147772236466,12,20
9.9334666457066,3.88485096594603,8.12074348125651,39.1333510792196,46.1609109517881,19.8615531140483,14.5311075770548,6.30126486358574,12.2453600731325,20,1319.01769016346,8.55960067896908,33.9249132570846,12,20
9.93477809179192,3.87807483963672,8.0664018677827,39.1399461347147,46.2736248562595,19.8617035085,14.643777912476,6.4647057092721,12.2428763769481,20,1310.80252348146,8.54279667387405,33.9301299897484,12,20
9.93565182660931,3.87191633745592,8.01494024302207,39.1448402945556,46.3741134627476,19.8620718171636,14.7571183386509,6.62883766945396,12.2379957489646,20,1302.78743253018,8.5273592980227,33.9296296815783,12,20
9.93610540485063,3.86659956170298,7.96810958960856,39.1481006992273,46.4602683870456,19.8626865919118,14.8684979710612,6.7890087490423,12.2310227176092,20,1294.84588204013,8.51382565210239,33.9235088631639,12,20
9.93617840608348,3.86230895485845,7.9276338343675,39.1497931744026,46.5306728936206,19.8635575115485,14.9757190165421,6.94086413669368,12.222602886009,20,1286.88186233964,8.50263743993633,33.9123781952629,12,20
9.93587554835604,3.85928626889834,7.89493913061852,39.150065564712,46.5819861279583,19.8646573504969,15.075610482448,7.08077988592362,12.2134447601965,20,1279.54460127594,8.49437809895241,33.8976539207125,12,20
9.9352766642389,3.85758451177519,7.87188940629079,39.1489354985074,46.6141860987747,19.8659286390035,15.1661924608849,7.20372107615725,12.2041685551835,20,1272.72879729511,8.48919386075292,33.8809298574973,12,20
9.93446871248127,3.8570424591513,7.8589064586385,39.1467007800654,46.6295291171787,19.8673644905079,15.2478007722826,7.30728600224637,12.1944820826592,20,1266.20313328982,8.48672041269669,33.8636267591294,12,20
9.93349745189391,3.85755985893176,7.85477014323141,39.1436857716922,46.6293380351183,19.868986895942,15.3211739348354,7.39303062905117,12.1840122023248,20,1259.75934613355,8.48672278284873,33.8450873807098,12,20
9.93239087957858,3.85926381025957,7.85871834643717,39.1400611052801,46.6104911101529,19.870717276467,15.3825929701461,7.46245558839826,12.1726211830566,20,1254.77365323479,8.48953943030455,33.8244603037873,12,20
9.9312068819706,3.86218054660023,7.87171809461171,39.1359311422422,46.5738496087356,19.8724699300871,15.4304020452377,7.5108748755344,12.1613279977411,20,1250.87421069791,8.49525353978105,33.8014285415785,12,20
9.93000441853407,3.86626823482888,7.89396022385665,39.131511829159,46.5202114687818,19.8742564640173,15.4638063467302,7.53644182138106,12.151358197257,20,1248.04609782835,8.50378462007077,33.7783360781524,12,20
9.92884859604487,3.87137950857913,7.92511008959997,39.1270231870109,46.4513629893166,19.8760580464407,15.4821909544552,7.5386962571302,12.1434850371889,20,1246.47908820256,8.51481622226985,33.7580239658283,12,20
9.92780008812607,3.87729814769576,7.96402472550869,39.1227082650564,46.369409140958,19.8778283035321,15.4852144974399,7.51816622894654,12.1378750818416,20,1246.6172480144,8.52787567338064,33.742312495104,12,20
9.92691767912303,3.88377510993128,8.00903723198195,39.1187936442702,46.2772332139112,19.8794834769203,15.4727871133306,7.47617726545792,12.1342763167937,20,1248.63865185813,8.54241406788689,33.7316351890741,12,20
9.92626414333032,3.89055688197417,8.05823580685092,39.1154989159575,46.1775482956147,19.8809378616547,15.4446264166231,7.41455130647972,12.1323774179765,20,1252.49962512503,8.5578758332977,33.7254616925881,12,20
9.92588882546151,3.89742692085564,8.10968258751564,39.1130586100632,46.0735491050577,19.8821536909099,15.4011198025321,7.33494382910743,12.1319774678021,20,1258.39547097896,8.57377680014904,33.7231174466678,12,20
9.9258293326061,3.90418897168855,8.16172918139648,39.1116571167728,45.9685974807434,19.8831350921019,15.3430954833928,7.23939062113561,12.1330215536224,20,1265.9735761599,8.58967064143712,33.7241736344347,12,20
9.92612484569024,3.91064974259951,8.21288929849663,39.111434957864,45.8659538126979,19.883897700822,15.2713376232242,7.13020618489617,12.1355014801989,20,1275.00396738465,8.60511797975791,33.7285316758529,12,20
9.92676393285018,3.91667413091598,8.26170683080505,39.1125384563951,45.7685122178326,19.8844763490433,15.1886100851971,7.0096307924191,12.1390783511101,20,1285.06974444825,8.61977660887054,33.7361995796237,12,20
9.92775749375832,3.92214203534182,8.30717160531782,39.114924837457,45.679117381731,19.8848844674013,15.096966832162,6.88143847987925,12.1432632317037,20,1295.83183617208,8.63334820778096,33.7464315029756,12,20
9.92909566759492,3.9268524204578,8.34839051162203,39.1186346109712,45.6008014320962,19.8851355535613,14.9990123448819,6.74857632054,12.1483781518215,20,1307.09013899835,8.64534573836986,33.7581345732783,12,20
9.93075146710679,3.93071525329409,8.38386381774308,39.1236306654051,45.5360870673242,19.8852712526198,14.8977641067789,6.61514852713879,12.1541526141949,20,1318.37537454195,8.65552099369226,33.7720589616929,12,20
9.9326916683829,3.93365750109249,8.41293007848805,39.1298118717303,45.4872349986564,19.885316054373,14.7964551051368,6.48483402829089,12.1602705519095,20,1329.07961961813,8.66365953313824,33.7876110996544,12,20
9.93488150613469,3.93558237467834,8.43505467928321,39.1370537841519,45.4563854358278,19.8853216654808,14.6995752451511,6.36140042585362,12.1662699580532,20,1338.20926696376,8.66947379034044,33.8040888851412,12,20
