Pdis,Psuc,T0,Tc,Tdis,Tret,Tsuc,Tsh,Tsup,CondFan,CprPower,Density,Cpr,Tset,Tamb
8.28585776715116,3.91844627246657,8.32001067712366,32.5662362089457,36.9746420844411,19.3409914195766,14.4928420714735,6.1724996618957,12.0154734809889,61.8470689882852,813.842377071388,8.63474684956557,29.2003140179793,12,10
8.27703819928907,3.94107676182268,8.32053541537454,32.5661718138236,36.7722211950522,19.3410485960674,14.4972490347415,6.17230665609901,12.0314778633797,61.8463534869287,661.094666923188,8.68489541777495,23.3601429978764,12,10
8.26117346617573,3.9959503601905,8.49078869499056,32.5284382089445,36.1953075659271,19.3412711982779,14.5092090330015,6.0064603397509,12.137836256708,61.4270912104947,504.261674658183,8.80648644188359,23.3865354231477,12,10
8.24475318956956,4.0407232069486,8.90053542515278,32.4604864289469,35.5706974520247,19.3412410998154,14.4974971610703,5.60867360784874,12.2810375649935,60.6720714327436,486.181513250597,8.90606155837047,23.5616006908129,12,10
8.2277441683889,4.07395036008956,9.23168924164571,32.3900517352775,34.9975536483857,19.3380491103106,14.4353415942932,5.26580791942462,12.3937593194441,59.8894637253055,512.350622173932,8.98085690072321,23.8013853572406,12,10
8.21091147929982,4.1031649622555,9.47564229947619,32.3169803183463,34.4577001343605,19.3299551934591,14.3055762284679,4.95969929481697,12.4833787291636,59.0775590927371,533.866920503083,9.04789473334132,23.9971897565693,12,10
8.19359445366446,4.12822733794836,9.68888453590461,32.244554518318,33.8822391108129,19.3193022031903,14.085996545428,4.61669169256328,12.5901333514681,58.2728279813106,574.021903456635,9.10725517875687,24.160597082074,12,10
8.18324478923346,4.14472886652006,9.87089812236411,32.1699281625142,33.27017126804,19.3088237783418,13.7957706136798,4.21509842306392,12.6847595441316,57.4436462501581,625.982327419155,9.14882882869186,24.3599025633991,12,10
8.17483049860702,4.15261276543129,9.99027965313843,32.1252704587432,32.0462356146352,19.2988474943456,13.518971810434,3.80549096054142,12.7479493066965,56.9474495415907,670.754530742711,9.17104845604804,24.5465645604813,12,10
8.16182345819005,4.1535063894728,10.0471884028926,32.0889323750236,31.9920305109003,19.2893664101675,13.2534550604217,3.47178340754141,12.7756347451539,56.5436930558178,687.823340052301,9.17753907036874,24.6853719330835,12,10
8.15399068431293,4.14919287175355,10.0536336955402,32.0327045867716,31.9593884719023,19.2813732293748,13.0021244890056,3.19982136488147,12.7741043971185,55.9189398530179,717.565075153584,9.17219818839975,24.7652391984344,12,10
8.14907666159647,4.14146875016351,10.0225125356786,31.9988119815922,31.9389099385417,19.2759350134687,12.7686038399833,2.97961195332698,12.7530282584491,55.5423553510246,758.048590567463,9.15895114674687,24.7932708236921,12,10
8.1463916882711,4.13204712968529,9.96672286492191,31.9775363838824,31.9277206708096,19.2735089076772,12.5549929751548,2.80188097506135,12.7220615294287,55.305959820915,802.33491914208,9.14157216233281,24.7839590371677,12,10
8.14554708948775,4.12219964171158,9.89856501116503,31.965907531733,31.9242009181835,19.2739103215144,12.3624125577978,2.65642796398976,12.6885228377334,55.1767503525892,844.90337566587,9.12287490249415,24.7534126157354,12,10
8.14617088227156,4.11261976521885,9.82719956684974,31.9622489052557,31.9268004912971,19.2765255830158,12.1897394049262,2.53521299094803,12.6569069909769,55.1360989472856,884.109218029412,9.1044258722,24.7147574099184,12,10
8.14773853315398,4.10384112429082,9.7576486540197,31.9649510735532,31.9333334669763,19.2805573488166,12.0373935702794,2.43209075090647,12.6287201006606,55.1661230394801,917.494412116714,9.08741074939962,24.6766453471316,12,10
8.15005254777768,4.09592971806795,9.69380622473534,31.9717411938731,31.9429768138639,19.2851761126346,11.9035808903434,2.34358734554411,12.604105975197,55.2415688208119,945.276951960484,9.07201002970252,24.6424090772443,12,10
8.15273898152009,4.0888257603458,9.63618144398856,31.98176231753,31.9541721676889,19.2899816621497,11.7872237036554,2.26739944635483,12.5830525704082,55.3529146392224,968.346224302183,9.05811108229602,24.6128165801455,12,10
8.15557650317121,4.0823866841218,9.5843655402179,31.9933935641219,31.9659971601943,19.2947181578564,11.6866451509478,2.2028581634375,12.5649745126772,55.4821507124656,987.493129290841,9.04542603637756,24.5882848346649,12,10
8.15840805531863,4.07669600318955,9.53733988709638,32.0056758348932,31.9777972755904,19.299055820374,11.6025142777814,2.14930526385143,12.5486497242518,55.6186203877019,1002.07797328813,9.03413188278703,24.5680434379752,12,10
8.16112040701837,4.07160866242303,9.49573277130349,32.0179290634416,31.989100639041,19.3029539365681,11.5347971190951,2.10678150647789,12.5338166087394,55.7547673715735,1011.94546926483,9.02390694971765,24.549964390693,12,10
8.16364071293244,4.0669878641423,9.45849942224999,32.0296634665427,31.9996036773292,19.3064526090554,11.4836826069873,2.07629769684513,12.5201863130675,55.8851496282525,1016.74595346969,9.01444392169562,24.5337185509181,12,10
8.16590198889304,4.06281387448553,9.42464984709198,32.040564396662,32.009027242882,19.309626130363,11.4493491298439,2.05903275989527,12.5075972265852,56.0062710740226,1017.7058224112,9.00569682698513,24.518884788775,12,10
8.16807183875054,4.05909873491008,9.39404813101964,32.0503428060227,33.0581259610499,19.3125358689108,11.43118997463,2.05530099882429,12.4962054815689,56.1149200669193,1009.43398456035,8.99770361474066,24.505264729466,12,10
8.16961816191779,4.05523969665988,9.36679030598793,32.0597239482466,33.7289145307309,19.3152377333341,11.4293342521748,2.06439966864207,12.485642110421,56.2191549805176,901.09040886367,8.98911691731762,24.4932823086264,12,10
8.17397464135135,4.05325688407786,9.33845654230532,32.0664081877375,34.1113942725005,19.3177535314491,11.5241146253659,2.09087770986952,12.483647458247,56.2934243081947,796.539149744214,8.98311078068387,24.482293912183,12,10
8.17582972478998,4.06174393700116,9.32389036964531,32.0852346811234,34.3336128211856,19.3202882269348,11.7321292274123,2.20022425572063,12.5861789310352,56.5026075680382,707.671413953836,8.99859034601736,24.4881693935508,12,10
8.17606354887031,4.06611117288692,9.3861999942585,32.093249119774,34.4780228906652,19.3227741536318,12.0123792919668,2.34592923315375,12.7435971384474,56.5916568863783,668.570673903127,9.00366223841663,24.7082705994909,12,10
8.17606981803788,4.06108733141609,9.41822435018031,32.0942592030263,34.6359721360581,19.3222243722482,12.3299034446532,2.59415494178648,12.8801303473883,56.6028800336255,664.931516970282,8.98717155868335,25.0486898456794,12,10
8.17675828439918,4.04449719115292,9.38138292217582,32.0942862845452,34.853523011802,19.3161349947349,12.6559783100897,2.94852052247734,12.9439348308121,56.6031809393912,683.556974758067,8.94479161427537,25.3579519879727,12,10
8.17826417755299,4.01903035073966,9.2594746246034,32.0972602230943,35.13672846951,19.3057347408294,12.9742440448521,3.39650368548627,12.9307175207095,56.6362247010476,709.751842580726,8.88283331353666,25.5246828686309,12,10
8.18004361368563,3.99072101611115,9.07159374482893,32.1037645086959,35.4654761684857,19.2954987545309,13.2768285471763,3.9026503000232,12.8620891163715,56.7084945410651,719.346966213271,8.81488700368828,25.530872408851,12,10
8.18122170863311,3.96573096546034,8.86167319308959,32.1114491261274,35.7840220439774,19.2895108939168,13.5658572505349,4.41515535408666,12.7919925744808,56.7938791791935,706.889120848299,8.754623786091,25.4145640243278,12,10
8.18106183835399,3.94680654249247,8.67541938960733,32.1165361186395,36.0509525686119,19.2895751344773,13.8464839461095,4.89043786092753,12.7603643719953,56.8504013182172,680.56529243288,8.70804383255443,25.2887379095861,12,10
8.17927547371828,3.93264013022615,8.53377642316241,32.1158458339937,36.2566777324032,19.2944699126739,14.121762575985,5.31270752294705,12.7740784915737,56.8427314888191,655.177786207602,8.67216765179749,25.2418226882169,12,10
8.17611384738537,3.919406316135,8.4274058611507,32.1081320150192,36.4237344511964,19.3010216433082,14.389597542311,5.69435671483427,12.8051518236046,56.757022389102,641.788330293229,8.63851877252336,25.2925924849787,12,10
8.17209775431456,3.90419695447047,8.32777322665657,32.0944764818615,36.5832187523279,19.3061725765061,14.6450027985793,6.06182431565446,12.8165735871278,56.6052942429059,640.776586110262,8.60072000931141,25.3827096435541,12,10
8.16767045989499,3.88702309290407,8.21294965438199,32.0771246531683,36.7532806197656,19.3086507912251,14.8833405040479,6.43205314419731,12.7874473224754,56.4124961463139,643.71773848414,8.55887288970774,25.4307073214513,12,10
8.16300236745308,3.87119784357068,8.08288368270399,32.0579887657169,36.9222640756682,19.3096175949721,15.1022983619783,6.80045682134386,12.7282261748704,56.1998751746317,639.053162645311,8.52035781327919,25.3876087851517,12,10
8.15961762339968,3.85912098110758,7.96264229341796,32.0378036380662,37.0690137323875,19.3112595084459,15.3053431574726,7.13965606856038,12.6628775942576,55.9755959785131,625.118348808976,8.49042761067465,25.2739186123483,12,10
8.15759283522526,3.85277018191969,7.870628593937,32.0231623605696,37.1710277833388,19.3151006366106,15.4933881220749,7.43471456353558,12.6125595943658,55.8129151174398,603.965042955449,8.47343352630192,25.1424452668517,12,10
8.15505040146655,3.85161596969109,7.82215353919946,32.0144016165916,37.2123549063455,19.32106203745,15.6676990755372,7.67123458287546,12.5835905957201,55.7155735176846,582.754649089171,8.46816775863132,25.0415357966269,12,10
8.15216244668065,3.85380154841099,7.81333699200127,32.0033988355646,37.2076739882181,19.3282060529987,15.8296809096003,7.85436208353593,12.5647377151818,55.5933203951623,564.920434646636,8.47048743112545,24.9867389562471,12,10
8.14908318823615,3.85782352192076,7.83003001214308,31.9908976282829,37.170080283078,19.3349003752214,15.9765239071933,7.99965089745723,12.5413981330469,55.4544180920326,552.980386857784,8.47710364540783,24.9536438298904,12,10
8.1459383987291,3.86345851535683,7.86073016514587,31.9775646478135,37.1078831336523,19.3403578178604,16.1059681046326,8.1157937420474,12.505533291214,55.3062738645944,543.25962895316,8.48755468118085,24.9095003498662,12,10
8.14280507138196,3.87133992426013,7.9037015761217,31.9639440110688,37.0187773422377,19.3448801380752,16.2163635457836,8.2022665285109,12.4601976665755,55.15493345632,532.670838985217,8.50326537512732,24.835921338942,12,10
8.13971863213249,3.88232853155401,7.96372350147919,31.9503690854858,36.8959443937477,19.3492870750494,16.3069615651999,8.25264004430443,12.4157790735525,55.0041009498424,519.553057808783,8.52614952072621,24.7396263752775,12,10
8.13676572019907,3.89669027449308,8.04725313146287,31.9369934581706,36.7334290153747,19.3540815893811,16.3755904631817,8.25970843373699,12.3824848775803,54.8554828685623,506.077901911146,8.55682882674355,24.6442073965754,12,10
8.13400923579889,3.91380327197599,8.15615179158408,31.9241929241808,36.5358145304231,19.3593745719533,16.4224194066442,8.21943867159763,12.3635004381721,54.7132547131197,494.030665039861,8.59392763586685,24.5730163328608,12,10
8.13157152708224,3.9325122295599,8.28551250984958,31.9122407278307,36.31887916857,19.3646249778037,16.445944531805,8.13690689679459,12.3558719472898,54.5804525314528,485.76325341365,8.63491947509581,24.5335319593294,12,10
8.12945855505708,3.95194887327547,8.42644416888896,31.9016682137252,36.0847798505773,19.3695019118539,16.4491485878436,8.01950036291606,12.3552254030883,54.4629801525022,481.031512857487,8.67784265087783,24.5193251833818,12,10
8.12786934638996,3.97127030691523,8.57231625601526,31.8925021768276,35.8392329689723,19.373303426893,16.4256080377873,7.87683233182838,12.358474600381,54.3611352980842,482.172560184927,8.72094128832371,24.5207175097337,12,10
8.12689114749003,3.99028920654852,8.71678187227855,31.8856070358791,35.5883873337015,19.375915493578,16.3731382088338,7.70882616550875,12.3647427709773,54.2845226208789,486.88559443659,8.76384273729916,24.5308816375525,12,10
8.12657981410954,4.00880423564614,8.85846243369116,31.8813623947531,35.3351200995928,19.3776036294483,16.290459731993,7.51467577514268,12.3754803206216,54.2373599417014,494.890181732577,8.80612914987893,24.5479093374173,12,10
8.12697173470612,4.02655986565021,8.99589520246502,31.8800113634642,35.0836912624724,19.3786310493636,16.1772814466708,7.29456452952797,12.391622650487,54.2223484829359,506.713651587639,8.84724659128082,24.5750839211438,12,10
8.12834524208603,4.04282955006068,9.12723688069923,31.8817120966573,34.8446031470491,19.3791959218188,16.0220583779515,7.05004456597158,12.4132998046337,54.2412455184149,522.538254234388,8.88578136090032,24.6145787627895,12,10
8.13035687011585,4.05753555426733,9.24719931178356,31.8876719232474,34.6199605927131,19.379408844282,15.8423979482459,6.77485906616789,12.437587099926,54.3074658138595,540.829621498738,8.92127902390475,24.6668229948376,12,10
8.13281146648255,4.07078774332966,9.35531562543156,31.8963992712729,34.4082780369659,19.379051759955,15.6503523991235,6.48708232281433,12.4633314764852,54.4044363474762,561.845601581478,8.95378586549161,24.7254915205988,12,10
8.13588272002091,4.0825707558162,9.45248793549905,31.907046215907,34.2186300952279,19.3780784635742,15.4392058544198,6.19786446362446,12.4926307425006,54.5227357322997,581.986403790377,8.98337740421809,24.7881534250228,12,10
8.13954400998675,4.09415218244659,9.53868497881291,31.9203645413201,34.0347316831983,19.3769098281066,15.2104980256705,5.9005208756069,12.5410788715335,54.670717125779,600.051349684448,9.01283811382601,24.8596031169393,12,10
8.1436849118648,4.10181677037686,9.62322262405502,31.9362365883932,33.8741035832734,19.3756370929641,14.9643510122092,5.58727540161544,12.5911220752975,54.8470732043692,629.368527243055,9.03392654280455,24.974909252344,12,10
8.14830110219669,4.10538652505178,9.67906938931986,31.9541813305786,33.7520798020762,19.3735619954662,14.7057703528511,5.28528162288939,12.6284021484745,55.0464592286517,664.542005387016,9.04615382269431,25.0958588053753,12,10
8.15330986556117,4.10516551633021,9.70505265892581,31.9741776648974,33.680524198989,19.3708244142321,14.4392607291103,5.00071769392525,12.6446111751848,55.2686407210823,698.371935059926,9.0501074898709,25.1904746825561,12,10
8.15852511743821,4.10191766834349,9.70344449727537,31.9958649057239,33.657132327136,19.3679853954977,14.1749917682907,4.73581623183497,12.6432691640242,55.5096100635985,729.202821784379,9.04730274463517,25.2393594023474,12,10
8.16376095921272,4.09655856988489,9.67980403486791,32.0184355679614,33.6773548930552,19.3657497496235,13.9217963867692,4.49518773342277,12.6309137468766,55.7603951995708,755.416434384686,9.03961751782394,25.2492223696965,12,10
8.16874024424852,4.08998531266609,9.64076495361508,32.0410844275285,33.7468947969513,19.3650826631078,13.6978641193579,4.28103143315417,12.6109705876626,56.0120491947613,771.320434906757,9.02873725719209,25.2338727749084,12,10
8.17333583630272,4.08250911464493,9.5928279422792,32.062613359118,33.8607657356416,19.3659872395992,13.513352429738,4.10503617707866,12.5887190963764,56.2512595457558,779.480895637521,9.01518307779733,25.2005227739377,12,10
8.177355680716,4.07461254014455,9.53823454518806,32.0824745620432,34.0208835848083,19.3683106077159,13.3861174493401,3.97511788454995,12.5652383139286,56.4719395782573,777.434449000905,8.99973225937602,25.1608760674003,12,10
8.18067664588657,4.06792179174289,9.48048856083074,32.0998406177042,34.2214836642631,19.3716405691333,13.3309478077548,3.9056288885094,12.5463419917027,56.6648957522684,757.51491936373,8.98576165337718,25.1173717969853,12,10
8.18330191959667,4.0682489710077,9.43149368173596,32.114182616112,34.3986598365682,19.3756554003899,13.3531306389818,3.89945412601884,12.5853959823672,56.8242512901337,711.81338229689,8.98612147715958,25.0833040850243,12,10
8.18517490036877,4.06791954334054,9.43389097250486,32.1255170867449,34.5483234088714,19.3800432449545,13.4425597532261,3.91923966647693,12.6718459744737,56.9501898527215,683.555036300082,8.98390463616833,25.1807303941003,12,10
8.18655930796089,4.06374987865352,9.43147720685118,32.1336019039892,34.7047966214628,19.3828796144909,13.5859127792058,4.01108254637489,12.763701457485,57.0400211554361,670.067664081923,8.97225377636051,25.3885679675574,12,10
8.18777149608194,4.05340646271559,9.40091255582399,32.1395768759894,34.8867780851876,19.3822945915906,13.7622072577654,4.18500022338185,12.8269118793406,57.1064097332156,670.110307958083,8.94633940580692,25.6137658002009,12,10
8.18904444792469,4.03735925635979,9.32498939642005,32.1448079411827,35.0997069824465,19.3784075055523,13.9513976065854,4.43721786134535,12.8529266187706,57.1645326798078,680.841968523377,8.90755590405446,25.7784385964075,12,10
8.19018059006884,4.01693150150702,9.20690597363779,32.1503005987038,35.3463488798454,19.3730547851804,14.1452692991644,4.74449163294764,12.8350803094925,57.2255622078198,690.498188348594,8.8589955174523,25.8604574684369,12,10
8.19102519468359,3.99585504558106,9.05606906722255,32.1552023940819,35.604914924166,19.3688942702438,14.3383295932427,5.08920023194185,12.7938497943707,57.2800266009103,689.807854316572,8.80904712704142,25.8409059826771,12,10
8.19134869684543,3.97708202795667,8.89982743542288,32.1588460425154,35.8474046006812,19.3676491915014,14.5298933621655,5.43850215781987,12.7547885667964,57.320511583505,678.248944721873,8.76427503877098,25.7645715675111,12,10
8.19101621404745,3.96181127236594,8.76013091155028,32.1602415652508,36.0563034508816,19.3698172249742,14.7208668058053,5.76976245061525,12.7348931002131,57.3360173916759,660.63977298031,8.72731707230275,25.6904584731944,12,10
8.18996024990898,3.94944527171446,8.64612423354919,32.1588073012808,36.2261650185991,19.3743888204522,14.9104783254019,6.07474257225613,12.735600578989,57.3200811253419,645.148973244678,8.69685071733882,25.6592854831593,12,10
8.18833830660784,3.93824803972949,8.55355749027495,32.1542517938669,36.3707482620051,19.379437457455,15.0951612622154,6.35692083512691,12.7391451890202,57.2694643762986,634.374872454771,8.66907672579729,25.6758055039428,12,10
8.18643683958861,3.92687462928637,8.46954858890422,32.1472537501609,36.5044032938314,19.3841313173509,15.2745721984132,6.6256126733112,12.7330971168203,57.1917083351214,628.487513529982,8.64101652410329,25.6989707908926,12,10
8.18420835270132,3.91559781348501,8.38403099261211,32.1390483447344,36.6280663876994,19.3877429698013,15.4422729282397,6.89054120580107,12.705764766715,57.1005371637151,624.744173180236,8.61337565800195,25.69922998251,12,10
8.18172263599779,3.90606347889385,8.29905278676421,32.129429925317,36.73410573291,19.3907784982902,15.5973453384482,7.14322014147552,12.6646418111545,56.9936658368559,617.817673451022,8.58981074303796,25.6479934481911,12,10
8.17895754705754,3.89929492155397,8.22705940825466,32.1186989469621,36.8169417920278,19.394304055789,15.7411155219216,7.37028593019357,12.6199611584511,56.874432744023,606.227214195571,8.57256041248794,25.5621783892592,12,10
8.17592191926081,3.89653417793387,8.17586881566262,32.1067590221335,36.8587919610167,19.3988836182947,15.8717402123883,7.56524670625896,12.5828833293493,56.7417669125948,591.34973583561,8.56439559503034,25.4659077619517,12,10
8.17267346106454,3.89744398620562,8.15496983024997,32.0936473879821,36.8586172486504,19.4045023577797,15.9903364933876,7.71677038213835,12.5571143577511,56.5960820886902,575.89184341603,8.56454492334612,25.3860533444765,12,10
8.16928648020954,3.90090519031596,8.16185837918459,32.0796124306663,36.8247780961427,19.4107825979712,16.0981170447137,7.82847811420305,12.5376346030756,56.4401381185146,562.016885594761,8.57050810246846,25.331948946519,12,10
8.16590029072145,3.90619213296202,8.18805342436423,32.0649745184564,36.762647247777,19.4168380163148,16.1921460254384,7.91006362034943,12.5184279670096,56.277494649516,551.866052051963,8.58072337496637,25.2920569557329,12,10
