Pdis,Psuc,T0,Tc,Tdis,Tret,Tsuc,Tsh,Tsup,CondFan,CprPower,Density,Cpr,Tset,Tamb
8.93169967482793,2.22663767813178,-7.32603381153183,35.2508227354948,62.3959978261419,9.21451089380969,5.21873399826484,12.5447592954823,-0.00619906146800986,91.6758081721645,3788.86707050699,4.97568668095249,80.3535351703751,0,30
8.9325862142255,2.22664323667387,-7.32601455448639,35.2508205920589,62.4008277833015,9.21452323559134,5.21874397654051,12.5447485527512,-0.00617971572120268,73.3406274849676,3788.90019197536,4.97569906366494,80.3534588841032,0,30
8.93847493559758,2.2267073260353,-7.32594982247997,35.2544039672295,62.4318590524981,9.21453579384968,5.21877716024176,12.5446937990205,-0.00602515057693154,73.3724797087062,3789.76434073631,4.97584258771239,80.353394925,0,30
8.94944089859491,2.22694794263399,-7.32520347881535,35.2781992873853,62.486701430701,9.21454924826423,5.21885493017498,12.5439806390571,-0.00533202936526322,73.5839936656475,3792.02772305913,4.97638186396568,80.3536054492785,0,30
8.9631199027226,2.22742775200908,-7.32240156054235,35.3224795123853,62.5508951080168,9.21456035600119,5.21885732312279,12.5412564907173,-0.00381408110916936,73.9775956656467,3795.43301883574,4.97745863088076,80.3549104724503,0,30
8.97779299257657,2.22809833314788,-7.31681500430261,35.3776578230768,62.6157303573218,9.21455123776536,5.21851060276038,12.5356723274254,-0.00169950405881991,74.4680695384609,3799.7679360115,4.97896674372082,80.3578992340578,0,30
8.99234980824109,2.22886546474527,-7.30900880067065,35.4367758013041,62.6769829576738,9.21449406560549,5.21750136018807,12.527519403431,0.000498215480433828,74.9935626782584,3804.78896760829,4.98069764103165,80.3621223256326,0,30
9.00610360084068,2.22963933452144,-7.30008088999853,35.4953536387039,62.732968853082,9.21436675199556,5.21567114246824,12.5175822501866,0.00231609269974342,75.5142545662567,3810.1207425729,4.98245123157957,80.3665480835936,0,30
9.01853323094609,2.23036508833316,-7.29107697239135,35.5506346406675,62.7823616170444,9.21418754399406,5.21293954444809,12.5067481148596,0.00361754104130796,76.0056412503774,3815.3748839396,4.9841051578749,80.3702397744238,0,30
9.02932855232748,2.23100762597121,-7.28263508067749,35.6005388787397,62.8246003365521,9.21399679736686,5.20940093251301,12.4955746251256,0.00454336596448002,76.4492344776863,3820.206035719,4.98557978188552,80.3729150001055,0,30
9.0385157838768,2.23155226789561,-7.27516292701819,35.6438395622452,62.8603966233497,9.213823943553,5.2053210522833,12.4845638595312,0.00532278292769206,76.8341294421796,3824.45815562287,4.98683971087655,80.3748508153315,0,30
9.04613235936408,2.23199003073014,-7.26883052103409,35.6806594846321,62.8902914213876,9.21369116499903,5.20096896067378,12.4741515733174,0.00615272932179778,77.1614176411741,3828.07113510073,4.98786230051228,80.3765055346877,0,30
9.05230282847866,2.23231365949053,-7.26374163771624,35.7111633392132,62.9151521403403,9.21359734298034,5.19661932101195,12.46471059839,0.0070930163890921,77.4325630152286,3831.06065490323,4.98862873026884,80.378275842214,0,30
9.05714504878991,2.23251768959983,-7.25998003162533,35.7358614975905,62.9357495157282,9.21352971440047,5.192537676325,12.4565993526373,0.00808888282580256,77.6521022008041,3833.44078160046,4.98912427983715,80.3802839058009,0,30
9.06081230261375,2.232602756248,-7.25760876333334,35.755234302748,62.9529259380114,9.21347169176016,5.18897785904699,12.4501464396583,0.00903864229479723,77.8243049133158,3835.22792652327,4.98934802648311,80.3824207729235,0,30
9.06377067990579,2.23260079879633,-7.256620155691,35.7699011138511,62.9683736986597,9.21340440062477,5.18588701699269,12.445598014738,0.00991825270818936,77.9546765675655,3836.69761859919,4.98937213549064,80.3844814442866,0,30
9.06595086805501,2.2325080777134,-7.25664290401619,35.7817295962248,62.9819609242744,9.21333478113985,5.18354180065643,12.4425299210089,0.0107299873776014,78.0598186331094,3837.66952179709,4.989185659249,80.3864164850467,0,30
9.06758966372232,2.23234552250465,-7.25772047033871,35.7904447885832,62.9944010802943,9.21326463864068,5.18190532427576,12.4412622709951,0.0114982783846358,78.1372870096281,3838.32608927576,4.98883591030255,80.3882293466867,0,30
9.06872649259832,2.23212173401605,-7.25960970386853,35.7969947555163,63.0057788340383,9.21320222405944,5.18115634965028,12.4415150281443,0.012244545813985,78.1955089379229,3838.61958478489,4.98834054447635,80.3899684237226,0,30
9.06941740634559,2.23185085242075,-7.26221077134414,35.8015379305967,63.0160756119869,9.2131570412194,5.18151644614147,12.4433671209944,0.0129591475943016,78.2358927164154,3838.57718142749,4.98772925765227,80.3916764314859,0,30
9.06987227345184,2.231549889818,-7.2653594668447,35.8042988602494,63.0259100606613,9.21311508859617,5.18264210982403,12.4468759129862,0.0136368019474844,78.2604343133279,3838.39386291165,4.98704340218084,80.3933334654154,0,30
9.07014348332872,2.23122677402165,-7.26885816770323,35.8061164482006,63.0353859604799,9.21307451853653,5.18448831012813,12.4515002775273,0.0142723964297033,78.2765906506716,3838.07719915398,4.9863011897682,80.3949282758844,0,30
9.07027381953094,2.23089006418602,-7.27261480723786,35.8072001339161,63.0445224370984,9.21303579215891,5.18699379673853,12.457103117366,0.0148579216271969,78.2862234125878,3837.64936260632,4.98552239847835,80.3964498459681,0,30
9.07029787550896,2.2305479433033,-7.27652994363712,35.8077209155855,63.0532982206605,9.21299999865283,5.19008409478766,12.4635237403756,0.015384651951706,78.2908525829822,3837.13624050569,4.98472608347964,80.3978811708864,0,30
9.0702434424238,2.23020796994568,-7.2805084666914,35.8078170349452,63.0616704756873,9.2129683470834,5.19367550791452,12.4705925614791,0.0158458096822187,78.2917069772909,3836.5622684631,4.98392998265753,80.3992036282133,0,30
9.07013271151565,2.22987695900136,-7.28446248462308,35.8075995389086,63.0695850803426,9.21294202627092,5.19767880041928,12.4781379925376,0.0162377549767143,78.2897736791877,3835.94921806484,4.98315021482003,80.4004023728738,0,30
9.06998330531074,2.22956088329568,-7.28831271510631,35.8071570929539,63.0769840850585,9.21292210993477,5.20200225773925,12.4859915155256,0.0165597799176567,78.2858408262569,3835.31627599421,4.98240103062714,80.4014687929454,0,30
9.06980914486319,2.2292648040208,-7.29198963628619,35.8065601062223,63.0838115189677,9.21290945968434,5.2065541707874,12.4939918940254,0.0168132408851989,78.2805342775317,3834.68031775396,4.98169463359485,80.4024001549099,0,30
9.06962117136515,2.228992844083,-7.29543430461706,35.8058641989184,63.0900177129486,9.21290465986789,5.2112448845777,12.5019884754045,0.0170007001181034,78.2743484348304,3834.05607379838,4.98104110152289,80.4031979011168,0,30
9.06942793439703,2.2287482028109,-7.29859867428752,35.8051130864044,63.095562229032,9.21290800691736,5.21598853190579,12.5098435588652,0.0171254080557333,78.2676718791506,3833.45618614404,4.98044840371461,80.403865948567,0,30
9.06923606638971,2.2285331994158,-7.30144543527075,35.8043409297049,63.1004156417021,9.21291954478187,5.22070451476867,12.5174339671765,0.0171911384198324,78.2608082640435,3832.89123226251,4.97992248508674,80.4044096628133,0,30
9.06905066172538,2.22834933110956,-7.30394751589125,35.8035742310183,63.1045604524294,9.2129391212311,5.22531874602294,12.5246520306599,0.0172022206394331,78.2539931646069,3832.36977764511,4.97946738539905,80.4048355381261,0,30
9.06887557740976,2.22819733624859,-7.30608741340467,35.8028333480788,63.1079913775824,9.2129664413095,5.22976464047105,12.5314061594276,0.0171635981500344,78.2474075384784,3831.89847759503,4.97908537206803,80.4051512751008,0,30
9.06871367020463,2.22807725873448,-7.30785646445236,35.8021336951378,63.1107151709448,9.21300110570621,5.23398384557663,12.5376211049234,0.0170808103273998,78.2411884012249,3831.48221743217,4.97877707817989,80.405365910964,0,30
9.06856698293356,2.2279885138904,-7.30925409921929,35.8014866901072,63.1127500767916,9.21304263356649,5.23792671589638,12.5432379447959,0.0169598779826856,78.2354372453973,3831.12426856148,4.97854164614557,80.4054897950936,0,30
9.06843689066203,2.22792995735118,-7.31028707682992,35.8009004986835,63.1141249733747,9.21309047585942,5.24155254992502,12.5482137927263,0.0168071256172198,78.2302266549641,3830.82644190726,4.97837688026885,80.4055343673691,0,30
9.06832421570107,2.22789995786449,-7.3109686842414,35.8003806182103,63.1148782583238,9.21314402631191,5.24482961668684,12.5525212341664,0.0166289881021271,78.225605495203,3830.58923059313,4.97827940998566,80.405511805023,0,30
9.0682293189142,2.22789647472367,-7.31131788840645,35.7999303370352,63.1150565018168,9.21320263430016,5.24773499483405,12.5561475050933,0.016431828356076,78.2216029958681,3830.41194210321,4.97824486518149,80.4054346338599,0,30
9.06815217342073,2.22791713655672,-7.31135843357902,35.7995510992378,63.1147129760069,9.21326562078974,5.25025425656474,12.5590934284131,0.0162217938760136,78.2182319932245,3830.2928297588,4.97826805594086,80.40531535778,0,30
9.06809242531715,2.22795931811316,-7.31111792217655,35.7992427990685,63.11390616318,9.2133322964284,5.25238103067113,12.5613721787413,0.0160047244481234,78.2154915472756,3830.22922358827,4.97834314888164,80.4051661637027,0,30
9.06804944501308,2.22802021433502,-7.31062691857619,35.7990040235544,63.1126982648281,9.21340197966452,5.25411646349738,12.5630079492473,0.015786089783262,78.2133690982614,3830.21765890794,4.97846383830628,80.4049987279049,0,30
9.06802237200062,2.2280969104166,-7.30991808441439,35.7988322576363,63.1111537460721,9.21347401259686,5.25546859203826,12.5640345479118,0.0155709374459434,78.2118422901006,3830.25400795587,4.97862350913919,80.4048240816144,0,30
9.06801015513133,2.22818644703332,-7.30902536069146,35.7987240630938,63.1093379471505,9.21354777350069,5.25645164374151,12.5644939527297,0.0153638422987683,78.2108805608338,3830.33361341844,4.97881538968421,80.404652496556,0,30
9.06801158934049,2.22828588030496,-7.30798320639065,35.7986752395382,63.1073157830939,9.21362268622937,5.25708527896228,12.5644348501322,0.0151688587946524,78.2104465736731,3830.4514203248,4.97903269308683,80.404493372839,0,30
9.06802535010115,2.22839233621406,-7.30682589879456,35.7986809712211,63.1051505519035,9.21369822728377,5.25739379349051,12.5639111777568,0.0149894815813809,78.2104975219656,3830.60210314711,4.97926874672102,80.4043551319802,0,30
9.06805002600071,2.228503059161,-7.30558689881366,35.7987359647818,63.1029028651917,9.21377393126181,5.2574052987589,12.5629806923042,0.0148286197393759,78.2109863536162,3830.78018620614,4.97951710862837,80.404245126275,0,30
9.06808414939396,2.22861545426747,-7.30429828505726,35.7988345794917,63.1006297121461,9.21384939504668,5.25715089639124,12.5617035838162,0.0146885873812153,78.2118629288147,3830.98015646993,4.97977166998982,80.4041695755201,0,30
9.06812622530566,2.22872712310018,-7.30299026114648,35.798970949812,63.0983836674274,9.21392428074097,5.25666386277646,12.5601411575377,0.0145711097312642,78.2130751094403,3831.19656800823,4.98002674275081,80.4041335368862,0,30
9.06817475847976,2.22883589257393,-7.30169074003675,35.7991391009514,63.0962122491527,9.2139983171827,5.25597885766211,12.5583546028132,0.0144773424545406,78.214569786235,3831.42413747297,4.98027713173296,80.4041409064203,0,30
9.06822827840106,2.22893983698932,-7.30042500807639,35.7993330570078,63.0941574291796,9.21407129991883,5.25513116941943,12.5564038657385,0.0144079011701592,78.2162938400693,3831.65782962595,4.980518191015,80.4041944478718,0,30
9.06828536208499,2.229037293328,-7.29921546923021,35.7995469409993,63.092255293723,9.21414308963551,5.25415600803279,12.5543466386496,0.0143628987478337,78.2181950311047,3831.89293197865,4.98074586475617,80.4042958427937,0,30
9.06834465442652,2.22912687010482,-7.29808146794414,35.7997750659657,63.0905358487868,9.21421360918555,5.25308785549959,12.5522374759769,0.0143419883672209,78.2202228085837,3832.12511761695,4.9809567130437,80.404445757158,0,30
9.06840488592415,2.22920745018776,-7.29703918707111,35.8000120163044,63.0890229618653,9.21428283944243,5.25195988166757,12.5501270425707,0.0143444110174187,78.2223290338167,3832.35049564857,4.98114792360954,80.404643920461,0,30
9.06846488763496,2.22927818808786,-7.29610161599243,35.8002527186067,63.087734429081,9.2143508142492,5.25080343183038,12.54806149766,0.0143690463127655,78.224468609837,3832.56564905002,4.98131731048366,80.4048892146828,0,30
9.06852360326805,2.229338502253,-7.29527858302163,35.8004925014214,63.0866821559914,9.21441761470925,5.24964759073282,12.546082014852,0.0144144657306811,78.2266000126351,3832.76766007814,4.98146330073575,80.405179770853,0,30
9.06858009836369,2.22938806264986,-7.29457684582297,35.8007271435735,63.0858724467993,9.21448336305241,5.24851882747561,12.5442244365558,0.0144789895407484,78.2286857206529,3832.95412382896,4.98158490990041,80.4055130714309,0,30
9.06863356657201,2.22942677472025,-7.29400023649958,35.8009529108331,63.085306375271,9.21454821625372,5.24744072063959,12.5425190639752,0.0145607426305219,78.2306925407385,3833.12314945746,4.9816817085268,80.4058860611109,0,30
9.06868333315529,2.22945476051569,-7.29354984869633,35.8011665809891,63.0849802170869,9.21461235947339,5.24643376062181,12.5409905693359,0.0146577057409445,78.2325918310143,3833.27335149029,4.98175378168361,80.4062952563358,0,30
9.06872885586649,2.22947233751688,-7.29322425735745,35.8013654578263,63.0848859333109,9.21467599950284,5.24551522653792,12.5396580179793,0.0147677629022382,78.2343596251227,3833.40383272549,4.98180168257819,80.4067368463867,0,30
9.06876972337603,2.22947999574474,-7.29301976525903,35.8015473746166,63.0850116923016,9.21473935847786,5.24469913426304,12.538534991797,0.0148887463722644,78.2359766632585,3833.5141590465,4.98182638168347,80.4072067875841,0,30
9.06880565146037,2.22947837373017,-7.29293066927499,35.8017106878152,63.0853424171854,9.21480266804326,5.24399625109578,12.537629803538,0.0150184795682549,78.2374283361353,3833.60432720071,4.98182921268539,80.4077008931888,0,30
9.06883647719802,2.22946823384664,-7.29294953980678,35.8018542618126,63.0858603468649,9.2148661640303,5.2434141714225,12.5369457909026,0.0151548176370397,78.2387045494453,3833.67472695438,4.98181181643482,80.4082149199732,0,30
9.06886215143929,2.22945043747079,-7.2930675075425,35.8019774457292,63.0865455994267,9.21493008162719,5.24295744684969,12.536481678965,0.0152956848141343,78.2397995175931,3833.72609903121,4.98177608400786,80.4087446507131,0,30
9.06888272987808,2.22942592040835,-7.29327455216475,35.8020800433129,63.0873767278795,9.21499465101095,5.24262776361189,12.5362319990144,0.0154391077193168,78.2407114961148,3833.75949012894,4.9817240999229,80.4092859708417,0,30
9.06889836280483,2.22939566899535,-7.29355978795104,35.8021622772542,63.0883312577226,9.21506009342272,5.24242415970889,12.5361875515629,0.0155832439555184,78.2414424644821,3833.77620611363,4.98165808650479,80.409834937482,0,30
9.06890928411873,2.22936069725652,-7.29391174152323,35.8022247482351,63.0893861993391,9.21512661769935,5.24234327407493,12.5363359012321,0.0157264057577322,78.2419977620895,3833.77776444986,4.98158035032473,80.4103878395058,0,30
9.06891579972213,2.22932202545791,-7.29431861732513,35.8022683910187,63.0905185269604,9.21519441728486,5.24237962015906,12.5366618914001,0.0158670786582888,78.2423856979444,3833.76584679316,4.9814932315433,80.4109412480276,0,30
9.06891827553442,2.22928066033767,-7.29476854692518,35.8022944280749,63.0917056177731,9.2152636677485,5.24252587646504,12.5371481670842,0.0160039353463048,78.2426171384436,3833.7422526153,4.98139905686305,80.4114920571819,0,30
9.0689171254141,2.22923757724552,-7.2952498188485,35.8023043216852,63.0929256464432,9.2153345248164,5.24277318695698,12.5377756953135,0.0161358448910391,78.2427050816462,3833.70885464982,4.98130009667433,80.4120375154608,0,30
9.068912799217,2.22919370436365,-7.29575108626466,35.8022997256818,63.0941579313421,9.21540712291471,5.24311146464885,12.5385242732216,0.0162618775843271,78.2426642282826,3833.66755686615,4.98119852684347,80.4125752478733,0,30
9.06890577119952,2.22914990913322,-7.2962615505192,35.8022824377335,63.0953832299834,9.21548157420762,5.24352969225259,12.5393730151681,0.016381305614857,78.2425105576315,3833.62025554132,4.98109639547953,80.4131032693602,0,30
9.06889652895261,2.22910698695417,-7.29677111905795,35.8022543530076,63.0965839823688,9.2155579681006,5.24401621433088,12.5403008113105,0.0164935999101203,78.242260915623,3833.56880391466,4.98099559488194,80.4136199898184,0,30
9.06888556302785,2.22906565218522,-7.2972705369512,35.8022174199539,63.0977445020176,9.21563637118459,5.24455901609929,12.5412867512821,0.0165984234469647,78.2419326218128,3833.51498075666,4.98089783877504,80.4141242113381,0,30
9.06887335739025,2.22902653142277,-7.2977514916933,35.802173598854,63.098851115459,9.21571682758474,5.24514598471143,12.5423105077926,0.0166956214418406,78.2415431009243,3833.46046309805,4.98080464481932,80.4146151181929,0,30
9.0688603808064,2.22899015899929,-7.29820669151229,35.8021248236716,63.0998922518573,9.21579935967895,5.24576514958915,12.5433526762237,0.0167852088488303,78.241109543748,3833.40680324963,4.98071732229787,80.4150922603512,0,30
9.06884707924999,2.22895697460248,-7.29862991787115,35.8020729676422,63.1008584852659,9.21588396915143,5.24640489907415,12.5443950674603,0.0168673556417502,78.2406486012638,3833.3554101615,4.98063696478129,80.4155555313203,0,30
9.068833869381,2.22892732288745,-7.29901605329735,35.8020198129244,63.1017425326768,9.2159706383369,5.24705417139177,12.5454209523715,0.0169423703396205,78.2401761148837,3833.30753507713,4.98056444750234,80.4160051412399,0,30
9.06882113313011,2.22890145492212,-7.29936108601703,35.8019670245434,63.1025392116433,9.21605933181417,5.24770261858094,12.5464152574088,0.0170106822578191,78.2397068848306,3833.26426137639,4.98050042909397,80.4164415861194,0,30
9.068809213397,2.22887953128675,-7.29966209324562,35.8019161287482,63.1032453616868,9.2161499982011,5.24834074268296,12.5473647118266,0.0170728229367683,78.2392544777622,3833.22649842754,4.98044535729516,80.4168656141648,0,30
9.06879841084889,2.22886162662986,-7.29991720521389,35.8018684958208,63.1038597340568,9.2162425721034,5.24896000406721,12.5482579478968,0.0171294071795387,78.2388310739624,3833.19497921523,4.98039947818125,80.4172781900952,0,30
9.06878898178719,2.22884773547118,-7.30012555222419,35.8018253272808,63.1043828546229,9.21633697616943,5.24955290230275,12.5490855562914,0.0171811141017884,78.2384473536068,3833.17026146398,4.98036284844535,80.4176804583099,0,30
9.06878113703176,2.22883777903573,-7.30028719717467,35.801787647359,63.1048168647962,9.21643312320435,5.25011303046102,12.5498400994774,0.0172286685616427,78.2381124209688,3833.15273193567,4.98033535023771,80.4180737057247,0,30
9.0687750417581,2.22883161290099,-7.3004030560619,35.8017562985365,63.1051653453758,9.21653091829711,5.25063510414782,12.5505160865229,0.0172728232983559,78.2378337647687,3833.14261355282,4.98031670806181,80.4184593250269,0,30
9.06877081620972,2.22882903524209,-7.30047480900157,35.8017319408921,63.1054331281223,9.21663026092091,5.25111496691625,12.5511099131494,0.0173143420665838,78.2376172523744,3833.13997497533,4.98030650722913,80.4188387790291,0,30
9.06876853719924,2.22882979548097,-7.30050480427298,35.8017150549484,63.1056260993014,9.21673104696538,5.25154957391857,12.5516197711892,0.0173539838963279,78.2374671550967,3833.1447422386,4.98030421342039,80.4192135667231,0,30
9.06876824030397,2.22883360313258,-7.3004959576491,35.801705947668,63.1057509998014,9.21683317066788,5.25193695597022,12.5520455315677,0.0173924887445196,78.2373862014932,3833.15671211257,4.98030919286826,80.4195851913178,0,30
9.06876992265397,2.22884013662637,-7.30045164942482,35.8017047612282,63.1058152269172,9.21693652641829,5.2522761665827,12.552388605395,0.0174305650176052,78.237375655362,3833.17556678059,4.98032073264106,80.4199551308288,0,30
