Pdis,Psuc,T0,Tc,Tdis,Tret,Tsuc,Tsh,Tsup,CondFan,CprPower,Density,Cpr,Tset,Tamb
7.99169255251836,3.42269800635642,4.36834516760712,31.2895958632702,38.4225152016111,12.6942069377466,9.7125196629342,5.37972991555739,6.98159758853353,47.662176258558,773.972441702072,7.60228905091278,22.6143025840373,7,10
7.99208474255063,3.42476943048087,4.3872228171964,31.2909700163852,36.387275457914,12.6940387190966,9.67495561426614,5.3252968457378,6.98468197274002,47.6774446265021,776.786804511104,7.60744799837075,22.6192710361263,7,10
7.99255130437254,3.42661181244835,4.40453919959981,31.2926934794409,36.3555340275381,12.6938344216495,9.63599406349016,5.27041641466633,6.98817963905185,47.6965942160101,779.562543487394,7.61211536365295,22.6253103060162,7,10
7.99308207344908,3.42818386278173,4.41993412820926,31.2947436834247,36.3278185418099,12.6936023005963,9.59639169409672,5.2160599352809,6.99189911362589,47.719374260274,782.44606213931,7.6161880829373,22.6322491573487,7,10
7.99366896644775,3.42941226400897,4.43306515445312,31.2970759226969,36.3058901559133,12.6933698458179,9.55716474266006,5.16332653964361,6.99553536066372,47.7452880299659,785.125405919879,7.61948775780472,22.63969885678,7,10
7.99429132461232,3.43035598249078,4.4433225370521,31.2996546390823,36.2884980976988,12.6931028539096,9.5188692527226,5.11384220560797,6.99914335952246,47.7739404342477,787.887583848541,7.62213820753318,22.6470345618048,7,10
7.99493359790882,3.43096820229365,4.45120085307605,31.3023890282939,36.2773425854789,12.6928409608075,9.48297990198137,5.06766839964655,7.00269231951444,47.8043225365986,790.216538101691,7.62401375998585,22.6543661261655,7,10
7.99558343358444,3.43128994766035,4.45631087599867,31.3052107486173,36.2714121397451,12.6925753342177,9.4498359119126,5.0266690259827,7.00629316334567,47.8356749846367,792.35060853873,7.62520118387159,22.661629138424,7,10
7.99622918370333,3.43132762593106,4.45899611216777,31.3080655194497,36.2708139766227,12.6923077939435,9.42011674807969,4.99083979974483,7.01001962953251,47.8673946605524,794.206238640039,7.62570506411065,22.6690520554145,7,10
7.99685998501999,3.43108470732555,4.4593105564644,31.3109021692755,36.275532457372,12.6920398963841,9.39443062014124,4.96080619161529,7.01388489226713,47.8989129919499,795.746839115801,7.62552444794308,22.6767890569586,7,10
7.99746590751446,3.43056197083904,4.45728323093033,31.3136729856525,36.2854736294884,12.6917705926544,9.37328204359261,4.93714738921091,7.0178438438204,47.9296998405832,796.966311313324,7.62465385966408,22.6848714482917,7,10
7.99803797946168,3.42976153853476,4.45292025666788,31.316334366141,36.3004688137299,12.6914978230227,9.35705596827813,4.92036178692473,7.02181741458048,47.9592707349001,797.868486295839,7.62309255441251,22.6932114785896,7,10
7.99856812884154,3.42868980107462,4.44623853142701,31.3188469263878,36.3202655059628,12.691220654416,9.34601192576275,4.91081743685112,7.02571818337947,47.9871880709753,798.458471842212,7.62085114972732,22.7016511078102,7,10
7.9990491479617,3.42735853510871,4.437290175898,31.3211752405463,36.3445233526394,12.6909403665688,9.34028392234029,4.90872174986475,7.02946600050313,48.0130582282925,798.742132784225,7.6179541284583,22.7100136787329,7,10
7.99951371647794,3.42583746435458,4.42617193061307,31.3232876836028,36.3717868308742,12.690610060481,9.33753421067036,4.91411199172722,7.03324016625567,48.036529817809,799.069631742867,7.61459049200025,22.7181355490465,7,10
7.99991214176839,3.42408792718164,4.41346445465916,31.3253277914954,36.4030448268514,12.6902927133889,9.34072106881638,4.92406975601119,7.03689976815855,48.0591976832822,798.667242099742,7.61063212440373,22.7263834487272,7,10
8.00022784550904,3.42207712304937,4.39884295594226,31.3270773667903,36.4377002187048,12.6900235027097,9.35008020809516,4.94187811287412,7.03996614152442,48.0786374087807,798.056611925247,7.60600249338845,22.7344704659701,7,10
8.00047691635242,3.41986475840757,4.38203088551222,31.3284636465609,36.4749194691813,12.6897646500344,9.36411393112837,4.96804932258294,7.04238472813023,48.0940405173436,797.322297781747,7.60085643494878,22.7414126293011,7,10
8.00065588772662,3.41750043116073,4.36352484675535,31.3295573070387,36.5141449874165,12.6895186821962,9.38246939250024,5.00058908437302,7.04420010064632,48.1061923004297,796.360113019171,7.5953100316053,22.7470859543866,7,10
8.00077964052232,3.41503592967443,4.34373752541279,31.330343147634,36.5546183410046,12.6892777527552,9.40399830391067,5.03873186708745,7.04558525427967,48.1149238625998,795.228921762744,7.58949543014288,22.7515683279911,7,10
8.00082571676915,3.41249320444299,4.32310066640269,31.3308865227246,36.5958903849188,12.6890840323052,9.42923659324782,5.08089763750797,7.0464070657053,48.1209613636066,793.8319948756,7.58345434007696,22.7552024524163,7,10
8.00079067312733,3.40990589991909,4.30179682582127,31.3310888331837,36.6372604459485,12.6889485524997,9.45775538850268,5.12743976742655,7.04656324958449,48.1232092575965,792.26735711281,7.57726817883948,22.7577046712118,7,10
8.00064413407679,3.4073502852996,4.28010699570973,31.330934964497,36.6775813327055,12.6888854804039,9.48986569231062,5.17764839279295,7.04592224696108,48.121499605522,790.506019934968,7.57110327256432,22.7588516010301,7,10
8.00045505889964,3.40483489895695,4.25867044433198,31.3302915392546,36.7170492948201,12.6888457438995,9.52300157628696,5.23119524797863,7.0448297589578,48.1143504361626,788.644835805542,7.56501476018008,22.7583572228603,7,10
8.00019296013946,3.40239301064903,4.23755929452739,31.3294613328307,36.7546682409138,12.688861360655,9.55756865123146,5.28544228175957,7.04295278639739,48.1051259203412,786.724335714412,7.5590713681337,22.7569168907929,7,10
7.99985886779969,3.40008743735836,4.21705356395432,31.3283104642022,36.7898437985611,12.6889343241803,9.59303849808356,5.34051508727714,7.04029426672201,48.0923384911351,784.729909877362,7.55342092885789,22.7538343603694,7,10
7.99945692051796,3.39799190412351,4.1976821839034,31.3268434325768,36.821936402796,12.6890607399153,9.62882516786567,5.39535631418016,7.03704678545756,48.0760381397418,782.664189596181,7.54823639217547,22.7490999055454,7,10
7.99898944019639,3.39621214433247,4.18006682202446,31.3250783822897,36.8493289606057,12.6892295950459,9.66418435025355,5.44875834584121,7.03358364836691,48.0564264698854,780.552874662619,7.54376438746117,22.7430963198095,7,10
7.99848320349633,3.39462235394166,4.16509935951899,31.3230254762387,36.8739116548981,12.6894690399338,9.69911158645652,5.49908499073456,7.02976037347418,48.0336164026527,778.194752862822,7.53972362851803,22.7365842789455,7,10
7.9979315036222,3.39329817416721,4.15172442228896,31.3208022725653,36.8936647126037,12.6897613433961,9.73272166695966,5.54738716416756,7.02524615652919,48.0089141396143,776.105216633479,7.53629540397043,22.729263753685,7,10
7.9973510459136,3.39237939947637,4.14058040756527,31.3183792909705,36.9075206578794,12.6900463703883,9.76395013377015,5.5921412593944,7.02053828349415,47.9819921218949,774.129261651514,7.53380680351917,22.7204482671906,7,10
7.99675216558562,3.3918039571828,4.13284623706892,31.3158298736254,36.9164087289129,12.6903613135369,9.79299131850013,5.63110389670123,7.01578701024943,47.9536652625048,772.115092348197,7.53211619917088,22.7111548193545,7,10
7.9961437851799,3.3915655067161,4.12800139313458,31.313199396746,36.9201465316966,12.690709704521,9.81945969817946,5.66498992536555,7.01091855057138,47.9244377416225,770.188745070054,7.53121463477262,22.7016934848731,7,10
7.99553560022884,3.39166160829031,4.12599361314835,31.3105270407011,36.9186963973656,12.691082104764,9.84298769685819,5.6934660850311,7.00591510680903,47.8947448966791,768.408743878178,7.53110164433265,22.6919149669063,7,10
7.99493702659225,3.39209481394193,4.12680281232105,31.3078553903258,36.912054264184,12.6914702527014,9.86324476669131,5.71618488453714,7.00085394351589,47.8650598925084,766.789455918658,7.53178742740892,22.6817843512385,7,10
7.99432743611624,3.39277693609492,4.13045029360921,31.305225811507,36.901789111403,12.6919413793625,9.88170854806856,5.73279447308209,6.99559596459699,47.8358423500778,764.939796520964,7.53305428686874,22.6714622587047,7,10
7.99374719420699,3.39379737218366,4.13619286493338,31.302547682672,36.8855787750156,12.6924003054106,9.89579115095665,5.74551568313518,6.99024905166812,47.8060853630224,763.719147559605,7.53513797331497,22.6606634348544,7,10
7.99322841040197,3.39526296105841,4.14478194296623,31.2999983489098,36.8631894395318,12.6927857449058,9.90440959539586,5.75100920799042,6.9858879996907,47.7777594323306,762.780209736294,7.53829227750355,22.6496025967714,7,10
7.9927542806674,3.39704238032017,4.15711443962215,31.2977189177947,36.8362079649798,12.6931712493368,9.90890674479868,5.74729515577371,6.98238883249394,47.7524324199408,761.971365439333,7.5422051307369,22.6404831363114,7,10
7.99233457659184,3.39906853465672,4.17208224392243,31.2956355902996,36.8051323843081,12.6935438460046,9.90913702192802,5.73682450087625,6.97956380764742,47.729284336662,761.491248790578,7.54672874643097,22.6330628419438,7,10
7.99197791793199,3.40128693680506,4.18911817678219,31.2937913317442,36.7707639115885,12.6938821680262,9.90498542262537,5.72001884514583,6.97726721100054,47.7087925749357,761.444590099843,7.55174311474735,22.6269682672702,7,10
7.9916914607398,3.4036549825535,4.20776160966665,31.2922240493282,36.7337108084889,12.6941741924471,9.89640224358379,5.69722381295873,6.97546380757268,47.6913783258687,761.787110409879,7.5571538874173,22.6219103381625,7,10
7.99148068289319,3.40613575687667,4.22765236689952,31.2909652185202,36.6945064977496,12.6944186154558,9.88341976272744,5.66874987668427,6.97420449657267,47.6773913168914,762.472632528356,7.56287829596501,22.6178252614905,7,10
7.99130873398898,3.40869849312361,4.24847863434866,31.2900389375135,36.654023460131,12.6946568543239,9.86804269788155,5.63494112837878,6.97337909852882,47.6670993057054,763.224152125439,7.56881970127156,22.6148261982459,7,10
7.99121814534785,3.41131228068302,4.26998077580328,31.2892832799541,36.6120679662982,12.6948440250018,9.84851530767145,5.59806192207827,6.97333279767588,47.6587031106015,764.481116835048,7.5749337386495,22.612696409689,7,10
7.99121806302154,3.41393830184597,4.29189849738526,31.2888851684474,36.5695989835754,12.6949640685978,9.8247752964823,5.55661681028619,6.97411863277949,47.6542796494155,766.091577275522,7.58113470374542,22.6121536749875,7,10
7.99134412756059,3.41648280438854,4.31390584827108,31.2888848066449,36.5278223517776,12.695009845171,9.79574711812791,5.51086944821122,6.97574533642648,47.6542756293883,768.123088930297,7.58722833553282,22.6133214307192,7,10
7.99155238285285,3.41891118954651,4.33521766328448,31.2894388237883,36.4874824385771,12.6950080676885,9.76369754316693,5.46052945484342,6.97778438371807,47.6604313754257,770.393535877783,7.59310562133599,22.616232655875,7,10
7.99184008485009,3.42118222930776,4.35554558302681,31.2903540310901,36.4492709957392,12.6949520425802,9.7291150643365,5.40815196014012,6.98016085800651,47.6706003454454,772.883024407821,7.59866759666333,22.6200207784326,7,10
7.99217867796743,3.42332083213472,4.37454636207019,31.2916183486478,36.4129080443133,12.6948364401558,9.69334487291451,5.35456870226631,6.9828681494717,47.6846483183092,775.623788362896,7.60395102077217,22.6245382534257,7,10
7.99259700912197,3.42525512170764,4.39243026720902,31.293106265344,36.380046612739,12.6946645744436,9.65578875328038,5.30091460570549,6.98610144485764,47.7011807260447,778.349634679756,7.6088036102764,22.6297762845286,7,10
7.99307742226747,3.42695769209412,4.40859824727136,31.294944518118,36.3503921809712,12.694450285582,9.61734574765654,5.24719050600902,6.98967258695524,47.721605756867,781.136613292045,7.61315137330418,22.6361401804836,7,10
7.99362027819883,3.4283695104236,4.4228235886124,31.2970554855609,36.3256079479676,12.6942200621797,9.57867171916786,5.19452215904414,6.99341048399742,47.7450609506769,783.840022011347,7.61685297535073,22.6432502037668,7,10
7.99420752926248,3.42942767323872,4.43461552798647,31.2994407159209,36.3065422990655,12.6939884092165,9.54090971523533,5.14405619118139,6.99695477758712,47.7715635102325,786.412792860699,7.61975149128412,22.6507583791939,7,10
7.99482176021192,3.43018895744807,4.44345118915692,31.3020208748612,36.2924740939764,12.6937349067794,9.50469442234754,5.09745852607841,7.00039823547979,47.8002319429019,788.910025348557,7.62196473124949,22.657925864627,7,10
7.99545093558538,3.43066648371406,4.44980662168661,31.3047194206595,36.2835963020771,12.6934678733585,9.47075807340337,5.05488780066094,7.00388427660266,47.8302157851052,791.188045893917,7.62351153529624,22.6649385713577,7,10
7.9960832075984,3.43086770806355,4.45379260495258,31.3074834611975,36.2799665913935,12.6931977522262,9.43980940762629,5.01696546845079,7.00751181042961,47.8609273466386,793.178474962017,7.62439842047693,22.6720891931321,7,10
7.99670745618978,3.43079306144039,4.45547212743884,31.3102609408097,36.2815844830725,12.6929289718354,9.41248921095479,4.98433728018745,7.0113002734671,47.8917882312184,794.861902965391,7.62461717058616,22.679583222205,7,10
7.99731348342271,3.43044041761669,4.45484909692306,31.3130030126162,36.2884006218773,12.6926604947553,9.38934282282133,4.95764011403173,7.01520270714184,47.9222556957356,796.237835689402,7.62415522245416,22.6874649077946,7,10
7.99789198525775,3.42980960409733,4.45190565036461,31.315664891323,36.3002987925822,12.6923893849561,9.37080520834547,4.93743717245673,7.01913779217887,47.9518321258114,797.30845558234,7.62300597351489,22.6956429905887,7,10
7.99843447585017,3.42890521157945,4.44663979942567,31.3182057275234,36.3170776987355,12.6921138984878,9.35719424542305,4.92416540891981,7.02301901431468,47.9800636391493,798.073982571516,7.62117516774125,22.7039551721183,7,10
7.99893325521969,3.42773749310003,4.4390888945693,31.3205882732464,36.3384438263196,12.691834818634,9.34870869881769,4.91810535085375,7.02677081955915,48.0065363694046,798.534563438404,7.61868293972949,22.7122270609758,7,10
7.99938144894391,3.42632189821918,4.42933718564689,31.3227787378985,36.3640166337565,12.6915552220104,9.34542888457861,4.9193715131708,7.03033130187919,48.0308748655394,798.694161834783,7.61556276333976,22.720304941424,7,10
7.99981177963261,3.42472612555292,4.4175120278062,31.3247469604348,36.3922547175546,12.6912297541507,9.34504710965098,4.92791685677241,7.03388864507463,48.0527440048314,798.813553808088,7.61199868632317,22.7280612940009,7,10
8.00017492445122,3.42291552596809,4.4041772676602,31.3266366601965,36.4241867455885,12.6909220555846,9.35039813634182,4.94086984199078,7.0372895334105,48.0737406688503,798.358136585157,7.60787333438115,22.7358800084392,7,10
8.00045671400608,3.42086603746429,4.38904158245185,31.3282312689358,36.4592301406519,12.6906630211837,9.36157341372194,4.96135655388997,7.04010037092092,48.0914585437315,797.674077425279,7.60313176212743,22.7434478978956,7,10
8.00067308012708,3.41863431924218,4.37190150482024,31.3294686002687,36.4965404393786,12.6904159467288,9.37712705161215,4.9896719089017,7.04227270723698,48.1052066696527,796.868231296945,7.59792124544162,22.7498724958524,7,10
8.00081816240079,3.41626612136541,4.35322847111223,31.3304186365868,36.5355908039008,12.6901855916983,9.39682092089606,5.02389858049992,7.04381707015085,48.1157626287427,795.834167937334,7.59234763500051,22.7550422277509,7,10
8.00090820424957,3.41381200457531,4.33340328001032,31.3310556637077,36.57563046802,12.6899640407784,9.41947172780095,5.06341764088575,7.04490340084175,48.122840707863,794.64448958231,7.58654080577246,22.7589650477705,7,10
8.00091806319661,3.41129783001988,4.31284771189883,31.3314510150088,36.6161767061647,12.6897962397059,9.44566898737656,5.10662401590213,7.0453714835154,48.1272335000982,793.19537305558,7.58055045098777,22.7619767212081,7,10
8.00081716094498,3.40878562842047,4.29177735780263,31.3314943029831,36.6561393555306,12.6897084255057,9.47583514339794,5.15389162957393,7.04509475500265,48.1277144775896,791.522424713047,7.57450950869262,22.7637372522165,7,10
8.00067490878565,3.40629525079927,4.27071164983249,31.3310512665461,36.6954981650613,12.6896407125625,9.5071867542236,5.20512349356545,7.04439591173269,48.1227918505125,789.771407904175,7.56850150333099,22.7639721934384,7,10
8.00045962788242,3.40385459814261,4.24981719885795,31.3304266659134,36.7333956704202,12.6896256126489,9.54026601902706,5.25736955536564,7.04295559926089,48.1158518434818,787.940984035469,7.56258126068116,22.7633300505579,7,10
8.00015026263961,3.40158391011497,4.22932858344575,31.3294813948602,36.7683565297171,12.689668807207,9.57489830135773,5.31093743558131,7.04080960069177,48.1053488317798,786.028887281917,7.55702007510986,22.7611435922583,7,10
7.99978241581224,3.39949507135315,4.21025666360367,31.3281229779387,36.8005990228573,12.689753190096,9.60990635145851,5.36464163775406,7.03826971744218,48.0902553104297,784.029436309655,7.55186093462042,22.757471315344,7,10
7.99936093688417,3.39761133030867,4.19270351145889,31.3265077180603,36.8296612929196,12.6898851823817,9.64478707227892,5.41720283999962,7.03528626851539,48.0723079784481,782.001634432509,7.54716275366658,22.7529425792286,7,10
7.99890094527449,3.39587723850384,4.17686676915321,31.3246568844605,36.8562449034993,12.6900794678717,9.67938267049362,5.46792030312571,7.03173451934146,48.0517431606719,779.807912217542,7.54280369362388,22.7474482969741,7,10
7.99839146317873,3.39437505266428,4.16228218929075,31.3226368470248,36.8785025081346,12.6903253885333,9.71293991121598,5.51710048120287,7.02724128260905,48.0292983002755,777.816919399224,7.53897802304686,22.7407242486655,7,10
7.9978461964776,3.39327400090079,4.14964344046615,31.3203993718151,36.8951300009341,12.6905772214707,9.74448845053456,5.56329647074983,7.02255884598731,48.0044374646127,775.833378298522,7.53607733573643,22.7319924229135,7,10
7.99727644045944,3.39251662565708,4.14037693953549,31.3180046237957,36.9068728118135,12.6908716606974,9.77413563718198,5.60411151099908,7.01793282585174,47.9778291532859,773.7707377966,7.53397152312121,22.7227905480456,7,10
7.99667963841328,3.39200356250513,4.13400149784491,31.3155021903236,36.9150274806443,12.6912551079483,9.80255726339783,5.64013413933708,7.01304337987744,47.9500243369292,771.47209938637,7.53242896598491,22.7136251965004,7,10
7.99607056468864,3.39181515168928,4.12968200942464,31.3128808237929,36.9174349317615,12.6916740972208,9.82814691906179,5.67287525397319,7.007714783496,47.9208980421434,769.640967980381,7.53165145559753,22.7038416540219,7,10
7.99545600348255,3.39198090781532,4.12809564949089,31.3102054039522,36.9148471494472,12.6921060501381,9.85100374438201,5.70005126957091,7.00227512334538,47.8911711550249,767.775264125066,7.53170343245259,22.6930777404626,7,10
7.99484514530539,3.39251951771026,4.12949126761862,31.3075057243944,36.9067713067303,12.6925544755761,9.87070399734881,5.72151247676339,6.99699407284822,47.8611747154938,766.013195228329,7.53263244600189,22.6820063918155,7,10
7.99425027301948,3.39343249343889,4.13402584467673,31.3048221570207,36.8930739127889,12.693006888265,9.88680670769668,5.73667815267208,6.99213229459309,47.8313573002304,764.470946939287,7.53444794217682,22.6711836228287,7,10
7.99368194180305,3.39470062728887,4.1417109617895,31.3022086691873,36.8740419263108,12.6934533024046,9.89912219357393,5.74509574590718,6.98783788595517,47.802318546526,763.149631469061,7.53710961507655,22.6611442981752,7,10
7.99315114652788,3.39628092904169,4.15238304980807,31.2997116491625,36.8500347553748,12.6938802085103,9.90742153360094,5.74673914376586,6.98409830698165,47.7745738795831,762.153145571847,7.54052461791099,22.6521948672437,7,10
7.9926688506982,3.39812973622823,4.1656779383095,31.2973794264371,36.8215702586885,12.694270588381,9.91149323708532,5.74174359529144,6.98084640842723,47.7486602937461,761.521837424408,7.54459840615702,22.6443153492275,7,10
