Pdis,Psuc,T0,Tc,Tdis,Tret,Tsuc,Tsh,Tsup,CondFan,CprPower,Density,Cpr,Tset,Tamb
7.99169255251836,3.42269800635642,4.36834516760712,31.2895958632702,38.4225152016111,12.6942069377466,9.7125196629342,5.37972991555739,6.98159758853353,47.662176258558,773.972441702072,7.60228905091278,22.6143025840373,7,10
7.97472625763268,3.48358572250351,4.3872228171964,31.2909700163852,37.9251701690937,12.694096292419,9.6883457805128,5.3252968457378,7.03678483571503,47.6774446265021,387.231185793328,7.73874910224411,4.52385420722526,7,10
7.94966018987619,3.63875356478411,4.89290766835489,31.2163513406695,36.6762062536142,12.6944401405073,9.701563306666,4.79543811215791,7.41501942042692,46.8483482296607,54.762072394472,8.0855810803418,4.54648191646721,7,10
7.91320187807374,3.78876956564336,6.15168122334114,31.1058905683198,35.2262140181439,12.6943006281716,9.70806398658573,3.54988208332486,8.07245034671053,45.6210063146639,62.8783590469037,8.42116818650493,4.70379711300378,7,10
7.86891256043643,3.92952722229996,7.33020294554382,30.9447579570351,33.7489352284116,12.6849520451372,9.70548279539594,2.37786104104191,8.8047635450377,43.8306439670568,75.4224984112274,8.73634668544653,4.90379711300378,7,10
7.81820642976545,4.04849133762008,8.40399294706793,30.7482619952709,31.8851553228462,12.6578520130707,9.7244852969323,1.301489848328,9.47576989151139,41.6473555030096,76.6860223793112,9.00250137816433,5.10379711300378,7,10
7.76816239617695,4.12535188550862,9.28885938130156,30.5222725228305,30.2587855569132,12.6153287664811,9.77533482769127,0.435625915630737,10.0198875087377,39.1363613647829,76.3228367224725,9.17385234424417,5.30379711300378,7,10
7.72129568923039,4.14073922008497,9.8500582353513,30.2981499047751,30.040561550474,12.5668876048193,9.84296849814899,-0.0747234076600307,10.4343097160415,36.646110053057,75.3839031443154,9.20717375885475,5.50379711300378,7,10
7.67291524219529,4.16089436174226,9.96144952646392,30.0872695129906,29.815289162607,12.5220268705045,9.90857978016038,-0.118481028314932,10.8276453636656,34.3029945887849,74.2943357422115,9.25120535642017,5.70379711300378,7,10
7.6293347700969,4.15816194296808,10.1068792245585,29.8685649406256,29.6123667504421,12.4862245507816,9.97161278823802,-0.198299444398117,11.2427739531792,31.8729437847291,73.1998870856426,9.24399905917097,5.90379711300378,7,10
7.59211475050758,4.11284156241342,10.0871949357573,29.6706683118986,29.439060317716,12.4591115793176,10.0090141052604,-0.115582147519319,11.5911345648662,29.6740923544285,72.1537027366986,9.14184508920202,6.10379711300378,7,10
7.56205278822735,4.03706966422892,9.75926032147481,29.5009793097217,29.2990837271334,12.4377693881693,9.99827074708918,0.249753783785593,11.8341502559426,27.7886589969083,161.336769605262,8.97234469347364,6.30379711300378,7,10
7.53931202751122,3.94695174025461,9.2047717220874,29.3634666696829,29.1931966222722,12.4208846565792,9.92950300395228,0.793499025001779,11.9321452249925,26.2607407742545,328.360155939378,8.77171726269342,6.50379711300378,7,10
7.52338137752283,3.85069023431565,8.53486515147296,29.259169769808,29.1190192265868,12.4088066010795,9.80309641721971,1.39463785247932,11.9116134042154,25.1018863311995,478.295579426841,8.55826933663272,6.70379711300378,7,10
7.50861437025561,3.91814947544795,7.80626422585021,29.1859651963376,29.0502600647229,12.4016441848833,9.67207374168606,1.99683219136949,10.259919800127,24.2885021815286,310.415999995923,8.71140808354373,6.90379711300378,7,10
7.50295951412959,3.91682400919655,8.31829757564753,29.1180034869517,29.0239295320259,12.4002100001456,9.58438909679302,1.35377616603853,9.60507850583821,23.5333720772417,268.149763500643,8.70985885940296,7.10379711300378,7,10
7.50364958015146,3.89988845754457,8.30830202380156,29.0919516802383,29.0271426652245,12.4274366455801,9.50004879021952,1.27608707299146,9.85984761619432,23.2439075582034,309.587458023786,8.67328599893791,6.77101484696312,7,10
7.50759395519516,3.85548447583171,8.18036044082135,29.0951315921437,29.0455087374539,12.4779240349784,9.41254953832879,1.31968834939818,10.5680948324351,23.2792399127075,394.179390657142,8.57521930141574,6.97101484696312,7,10
7.51221529410553,3.83299466397908,7.84287895317635,29.1133035482532,29.0670269357195,12.5175620782334,9.31049034886479,1.56967058515244,10.6621924852236,23.4811505361468,432.867226932173,8.52645875852857,7.17101484696312,7,10
7.51841308986549,3.85408846742476,7.67081685675691,29.1345851716336,29.095885541539,12.5261022133374,9.22155682008326,1.63967349210787,10.2234464692133,23.7176130181511,398.911563565689,8.57513547621578,7.37101484696312,7,10
7.52589354874997,3.87844420707148,7.83222090607438,29.1631110309432,29.1307165722243,12.5202644408696,9.1590674816681,1.38933591400888,9.85528558314593,24.0345670104798,357.858624749127,8.63071963601972,7.57101484696312,7,10
7.53336868951178,3.89207525694961,8.01774719114525,29.1975168798593,29.1655228402986,12.5237401459544,9.11863384214354,1.14132029052286,9.67384964479027,24.4168542206593,337.651423414051,8.66192407174835,7.29851970627471,7,10
7.5403265547911,3.89337110478309,8.12119165320303,29.2318725563823,29.1979205344496,12.5403896047077,9.09267881548294,0.997442188940511,9.6756070685484,24.7985839598029,334.242853019041,8.66524723656432,7.17556792106936,7,10
7.54746559729217,3.87057519283848,8.13101128330106,29.2638277827478,29.2311618385271,12.5620755029402,9.07304700735011,0.961667532181878,9.98996798669396,25.1536420305311,384.207549030699,8.6144603101753,7.21607167277686,7,10
7.55288180005153,3.80995136315754,7.95790367773606,29.2965920301044,29.2563811368914,12.5804951614793,9.04660423435553,1.11514332961406,10.589098628981,25.5176892233818,490.077630263335,8.4789929910082,7.41607167277686,7,10
7.55951479751045,3.73029740649138,7.49371834073452,29.3214338351583,29.2872661589995,12.5877520477802,9.00544026444226,1.55288589362101,11.0501396669023,25.7937092795367,624.517604239765,8.30112640626097,7.61607167277686,7,10
7.5689676983916,3.63494429136091,6.87516481120224,29.3518382932041,29.3312814107029,12.5786485129764,8.94948297803751,2.13027545324002,11.367063298567,26.1315365911571,756.444069872868,8.08833660054182,7.81607167277686,7,10
7.57979349721821,3.5233147540472,6.12127568225497,29.3951339874155,31.4045383104636,12.5599615960014,8.89228274079693,2.82820729578253,11.5607622898495,26.612599860172,803.923435838808,7.83914184923634,8.01607167277686,7,10
7.58456463323507,3.58619811223842,5.2192270865259,29.4446677802684,32.5839103458109,12.5405867794169,8.87425562053636,3.67305565427102,10.7983305879217,27.1629753363154,459.207874002008,7.98025684310844,8.21607167277686,7,10
7.58464952518845,3.74058426412432,5.73001599308253,29.4664813593256,32.4848496981416,12.5259008175308,8.92557519577724,3.14423962745383,10.5388234004303,27.4053484369511,140.440482820294,8.32541306552601,8.41607167277686,7,10
7.5841467407722,3.72781534295471,6.95561181980975,29.4668693908092,32.2367665098594,12.5305262111844,8.99185006126595,1.9699633759675,10.3068837907433,27.4096598978796,233.145256842358,8.29577405456856,8.61607167277686,7,10
7.58476218058435,3.68657678499552,6.85572876883742,29.464571172644,32.2760972306903,12.5493967871008,9.06593509481178,2.13612129242853,10.0943577237152,27.3841241404884,337.791295350341,8.2022434612145,8.42293157429888,7,10
7.58665241247048,3.66236747727301,6.53134904828602,29.4673843207887,32.4804501516096,12.5717492951934,9.14646513022029,2.53458604652576,10.0745313264617,27.4153813420962,354.798049383919,8.14679464908486,8.23504011497538,7,10
7.58774788927387,3.65699471178036,6.33962562350996,29.4760234127907,32.6512932045787,12.5942901690579,9.23392807219352,2.80683950671033,10.3585192098079,27.5113712532295,326.29347464247,8.13344133027214,8.25295305168262,7,10
7.5874857373184,3.64048178952472,6.29694512971895,29.4810294244984,32.7847791190187,12.6131784608224,9.32124881607297,2.93698294247457,10.718447016738,27.5669936055383,332.835899393379,8.09515480386251,8.45295305168262,7,10
7.58673530643606,3.59099200659139,6.1654678481122,29.4798315155159,33.013857852678,12.621471247083,9.39784778080946,3.15578096796077,10.8938419827802,27.5536835057317,400.733237282384,7.98323783985656,8.65295305168262,7,10
7.5865942045437,3.51286328062578,5.76867381521186,29.4764022332353,33.4550660555473,12.6180807029359,9.45758249392691,3.6291739655976,10.8047221776237,27.5155803692807,493.739455132682,7.80754927219865,8.85295305168262,7,10
7.58705615329737,3.42362781503816,5.13365680909976,29.4757574041986,34.1125009340842,12.6100102980468,9.50262485568487,4.32392568482715,10.5210513262525,27.5084156022065,567.263158641203,7.6073221468616,9.05295305168262,7,10
7.58958981235824,3.33771858300961,4.39499668601758,29.4778684547521,34.964464906337,12.6066599911646,9.53902998114648,5.10762816966729,10.1527628499056,27.5318717194674,601.776958436711,7.41474855577194,9.05644830976381,7,10
7.59553034361814,3.2678278871432,3.66979935818813,29.4894452531092,35.8594978341059,12.6129843911696,9.57526670928081,5.86923062295836,9.85724916782465,27.6605028123242,594.056745220394,7.25805787467622,8.66035942186209,7,10
7.60041739825514,3.23262451879331,3.06918910346064,29.51657733271,36.6478968978911,12.6296291570079,9.62113094519344,6.50607760582017,9.8664479057008,27.9619703634448,521.105374275704,7.17879121488422,8.33445049839352,7,10
7.60222721693608,3.21649340639085,2.76292791308151,29.5388859134665,37.1962375729169,12.6527835676595,9.67884142856286,6.85820303211193,10.2011527423718,28.2098434829607,442.701068921569,7.14199298196203,8.36737683837168,7,10
7.60053078578686,3.19356781022538,2.62173538271929,29.5471446906924,37.5851842297199,12.6732005628288,9.73896498309369,7.05710604584357,10.5415163933541,28.3016076743605,419.618050242308,7.08999943123928,8.56737683837168,7,10
7.59709831655451,3.15172617102394,2.42013411452325,29.5394033802413,37.9851901112622,12.6808393238517,9.78861066271543,7.31883086857044,10.590106715853,28.2155931137917,447.640598553524,6.9959233207208,8.76737683837168,7,10
7.59362401826907,3.09892640974182,2.04930848358913,29.5237360419006,38.4960772819971,12.6758482267454,9.82430547410365,7.7393021791263,10.3027910957593,28.0415115766731,487.144770402978,6.87759698292575,8.96737683837168,7,10
7.59062421588555,3.04990257785777,1.57593166579801,29.5078723491005,39.0585095474653,12.6685831046736,9.85291042336451,8.24837380830564,9.81033615328516,27.8652483233391,506.007026530888,6.76782415862727,9.0542858590985,7,10
7.58799866819361,3.01866983251701,1.13082849805949,29.4941708146883,39.5782758976488,12.6702490249657,9.88544417029038,8.72208192530502,9.33170963825717,27.7130090520927,487.1176462807,6.69772846105415,8.46775505915231,7,10
7.58579607387142,3.02232207295511,0.844381313365773,29.4821753349913,39.9279057300065,12.6864013591911,9.93412296283401,9.04106285692461,9.22656492195739,27.5797259443474,395.768331560075,6.70527550259075,7.88252332561993,7,10
7.58197828680415,3.05830599040611,0.877994656629824,29.4721098144382,39.9590899784959,12.7150379741923,10.0046582174941,9.05612830620419,9.64876339890708,27.4678868270914,284.988510591172,6.78467835351947,7.753279214719,7,10
7.57517596851087,3.09396592691592,1.20751426970082,29.4546578957597,39.7451053382888,12.7443752471185,10.0860108459395,8.79714394779324,10.2109475909071,27.273976619552,226.341361219159,6.86321097366534,7.953279214719,7,10
7.56668531925743,3.10296921161756,1.53114087923194,29.4235466465287,39.4855269599693,12.756960211053,10.1598157918814,8.5548699667076,10.4920252526977,26.9282960725415,238.249253059891,6.8823603799532,8.153279214719,7,10
7.55920355713299,3.08537843231057,1.61239551632559,29.3846840806016,39.3503287912174,12.7481916765616,10.2149004638962,8.54742027555579,10.3672336648817,26.4964897844619,292.159217065897,6.84242684532713,8.353279214719,7,10
7.55368197334018,3.05891608212706,1.45346932449621,29.3504120729485,39.3913661161636,12.7304009591707,10.2551484361621,8.76143113939997,9.95632951341344,26.1156896994281,343.75428725847,6.78290674235056,8.553279214719,7,10
7.55005017457384,3.04123575036134,1.21307538570039,29.325102750515,39.548673654408,12.7197353498111,10.2908703544038,9.04207305046174,9.45714536195544,25.8344750057227,362.129203952181,6.7430380075121,8.753279214719,7,10
7.54778364867747,3.04202779898741,1.05156864258669,29.3084480541005,39.7000427062316,12.7248886497006,10.3319049060147,9.23930171181706,9.03527114780582,25.6494228233388,342.947139694996,6.74429407880437,8.1587506998644,7,10
7.54684160876038,3.0765485791582,1.0588192859617,29.2980511666262,39.6763593693992,12.746037045909,10.3871710437947,9.273085620053,8.96573819062218,25.5339018514026,259.499366869635,6.82056778233348,7.62704586478482,7,10
7.54459311408699,3.1440056493062,1.37343233121584,29.2937291995031,39.3459761068622,12.7775709883801,10.4622446376182,9.01373871257886,9.40179998280411,25.4858799944789,154.907524607963,6.97001945017724,7.53402419477471,7,10
7.54001163842862,3.20780466337505,1.98047208215081,29.28341173129,38.7937287071946,12.8072199899857,10.5462845711372,8.48177255546739,9.96849448430476,25.3712414587773,99.8901619633946,7.11119092772504,7.73402419477471,7,10
7.53459784061592,3.23869531157609,2.54545918605464,29.2623819534623,38.2336365281903,12.8186273062255,10.6230078587668,8.00082538508258,10.2895007836965,25.1375772606922,117.63155132673,7.17906302093884,7.93402419477471,7,10
7.53090163714454,3.23638110092039,2.81592439090809,29.2375192657314,37.7775325642802,12.8078734819571,10.6821519854115,7.80708346785866,10.2548130404808,24.8613251747928,187.73627638489,7.17312022027324,8.13402419477471,7,10
7.52939127260235,3.22125312918125,2.79573091735176,29.2205368457706,37.584591844483,12.7878782827559,10.7268755330808,7.88642106805969,9.98865539535245,24.6726316196733,255.429654333828,7.13880317305453,8.33402419477471,7,10
7.52973899756405,3.20837920680234,2.66345272649141,29.2135955826178,37.5826217625969,12.7737582803144,10.7642248769208,8.06342280658936,9.63828737732837,24.5955064735306,293.590827306604,7.10961468197863,8.53402419477471,7,10
7.53131110642825,3.20531333695444,2.55050784456586,29.2151937337235,37.6514808866417,12.7735117597162,10.8012422244578,8.21371703235491,9.32042651213732,24.6132637080393,299.942402095807,7.10229620176254,8.47050789669744,7,10
7.53348414488803,3.21925133526201,2.523559237889,29.2224184850675,37.6659585295484,12.7866950459809,10.843752122481,8.27768298656878,9.15284817293218,24.6935387229718,269.4671687393,7.13280363405069,8.07228541885213,7,10
7.53502794787115,3.25907264981721,2.64591345440743,29.232402986882,37.5026939059914,12.8090868539601,10.8967033051455,8.19783866807359,9.28441066828839,24.8044776320221,198.455983666844,7.22085788262338,7.85928024421464,7,10
7.53472118500755,3.31409172770285,2.99325793127508,29.2394950108635,37.111494996395,12.8334876452051,10.9596680541487,7.90344537387045,9.66222968585731,24.8832778984839,140.913352457953,7.34264823281824,8.02216589220732,7,10
7.53327204819301,3.35626241988922,3.46784877199701,29.2380858704875,36.6367136683537,12.8500169758578,11.0230799375026,7.49181928215165,9.9741634462888,24.8676207831945,134.289900136579,7.43578657426227,8.22216589220732,7,10
7.5328994820933,3.36383784009687,3.82753652974441,29.2314285576011,36.2676049655821,12.8515889794403,11.0754870809835,7.19554340775824,10.0175500504933,24.793650640012,181.105759745589,7.45195298805806,8.42216589220732,7,10
7.5341302228669,3.35081266129588,3.89178222585076,29.2297168386889,36.0944712490655,12.8415577495247,11.1162143498466,7.18370485513276,9.83381822772412,24.7746315409876,242.894739015903,7.42236331521466,8.62216589220732,7,10
7.53661653332406,3.33578911574313,3.78124938315955,29.2353711156553,36.0942305783744,12.8316118337062,11.1499073963707,7.33496496668704,9.54491851737288,24.8374568406146,284.040555206666,7.38842223569735,8.76934484724088,7,10
7.53975835708862,3.33014469238559,3.65334840774295,29.246791617509,36.167214352182,12.830714419445,11.1826047003026,7.49655898862773,9.27437444259294,24.9643513056551,293.347889822901,7.37539949251742,8.41409927455707,7,10
7.54232609365181,3.35461069414983,3.60518121547921,29.261219067022,36.1615684874594,12.8412637243823,11.2216235269509,7.57742348482344,9.22940187304152,25.1246563002439,241.700337448129,7.42938371065197,8.07521790582843,7,10
7.54279719608033,3.41181229742762,3.81351380041843,29.2730069114879,35.9262777421559,12.8604350707756,11.2723894684999,7.40810972653247,9.53089851105108,25.2556323498652,159.69594763405,7.55615075440167,8.01729579530773,7,10
7.54175304144814,3.46735841008572,4.29608988429305,29.2751692983557,35.5011487400271,12.8800233458824,11.3285140983548,6.97629958420686,9.94786728300483,25.279658870619,116.683130398537,7.67915432386349,8.21729579530773,7,10
7.54096034432185,3.48840295593654,4.75880250028945,29.2703764322811,35.078892646903,12.8885662410618,11.3782134002656,6.5697115980654,10.1858473383865,25.226404803123,145.578294819397,7.72535051302193,8.41729579530773,7,10
7.54186960102424,3.47391229993394,4.9326259683732,29.2667374698023,34.8551966951983,12.8822003300987,11.4139437972254,6.44558743189236,10.1331824680385,25.1859718866923,219.593067544618,7.69254874924836,8.61729579530773,7,10
7.54408327432263,3.44726056521668,4.81302266413292,29.2709114874219,34.8543168256729,12.8692425206494,11.438901355104,6.60092113309253,9.89377197589511,25.2323498602436,285.791800508906,7.63280843689146,8.81729579530773,7,10
7.54159921234661,3.42283702339933,4.59204260604724,29.2810719527731,34.9691684829422,12.8610949009652,11.4585759028078,6.84685874905671,9.58930139309746,25.3452439197007,322.668925890379,7.57811735095544,8.93475244412241,7,10
7.53562567180841,3.41055607405839,4.38838520245037,29.2696702855597,35.1054622285382,12.8642317072652,11.4787794374325,7.07019070035744,9.33742406250184,25.2185587284411,323.050442156383,7.55047672060161,8.55892109275807,7,10
7.53248151424919,3.43115208113955,4.2855587061602,29.2422405807251,35.1593441080234,12.8786277447931,11.5066049860743,7.19322073127233,9.33626196121236,24.9137842302793,257.649704715601,7.59596939495556,8.2426975655131,7,10
7.53245038494772,3.48288877818909,4.45784552351415,29.2277964499846,34.9937199117951,12.9001485671267,11.5466032916414,7.04875946256016,9.67293821355344,24.753293888718,169.840320685415,7.71066519761876,8.24123352700262,7,10
7.53297122118215,3.52585948369611,4.8871578496998,29.2276534205589,34.656415772472,12.9198375691208,11.5906482430618,6.65944544194161,10.0700064195977,24.7517046728768,137.259579198053,7.805774907259,8.44123352700262,7,10
7.53238280881114,3.53173819135638,5.24003235264712,29.2300464419494,34.3457672894127,12.9270422021031,11.626744567352,6.3506158904147,10.2458918576493,24.7782937994379,179.83772771785,7.81835271147642,8.64123352700262,7,10
7.53090679154704,3.50647159270752,5.28805172397085,29.2273429277681,34.22819833355,12.9199659842915,11.6500648455533,6.33869284338118,10.1399963318886,24.7482547529791,259.245874880936,7.76172717350744,8.84123352700262,7,10
7.52906316830589,3.47300924568622,5.08122947310557,29.2205605323393,34.322301093316,12.9081589891617,11.6640106788942,6.56883537244778,9.8595789317846,24.6728948037698,321.265282206048,7.68698974162599,9.04123352700262,7,10
7.52697286966242,3.44542178437777,4.80555637569921,29.2120875575375,34.537245572007,12.902911654266,11.674685158944,6.85845430319495,9.54131802017605,24.5787506393059,348.060841487377,7.62539509749919,8.9927573524194,7,10
7.52561885053746,3.43785257124008,4.5767483503314,29.2024790152115,34.7478442905785,12.9094011557326,11.688607182692,7.09793680861259,9.34098911979885,24.471989057905,324.431646738712,7.60834259891983,8.59449153256024,7,10
7.52666342166271,3.46672629505899,4.51372468778243,29.1962538801154,34.805794863777,12.9269390110337,11.7128117354115,7.17488249490958,9.44973727622721,24.4028208901713,241.258563524598,7.6723049683185,8.34066040526765,7,10
