Pdis,Psuc,T0,Tc,Tdis,Tret,Tsuc,Tsh,Tsup,CondFan,CprPower,Density,Cpr,Tamb,Tset
6,2.92803182339495,-66.8562457822183,-66.8562457822183,21.5510217973122,-273.15,0,66.8562457822183,-273.15,0,0,6.61608351884431,0,20,7
6.00456472962815,2.97893241086185,-1.70530256582424e-13,21.5716593574974,21.5747762878534,-100.451718746113,0.00448520409571529,1.70530256582424e-13,-99.1308197661117,0,0,6.73172846088575,0,20,7
6.00896438096811,3.03800977265539,0.476622568495998,21.5965522135354,21.5976717240902,-36.8359647317844,0.0103075503851073,-0.472137364400282,-31.3496226174576,0,0,6.86596996149694,0,20,7
6.01340275028026,3.08114867845453,1.02202210341414,21.6205313101411,21.6207686455802,-13.4181181280152,0.0169304868895779,-1.01171455302904,-5.57924658804848,0,0,6.96398162070147,0,20,7
6.01778960014659,3.11366445488861,1.41515128946219,21.6447079821877,21.6435974639647,-4.80817224843929,0.0241335374849996,-1.39822080257261,3.51479698641964,0,0,7.03783778503937,0,20,7
6.02208473254949,3.13888563651602,1.70868507457755,21.668590763993,21.665948991952,-1.62887216233031,0.0317899940909001,-1.68455153709255,6.30814479936322,0,0,7.0951026332957,0,20,7
6.02627589517657,3.15871839328463,1.93475028251947,21.6919614703268,21.6877594694813,-0.431862419966876,0.0398219636178396,-1.90296028842857,6.8161419745968,0,0,7.14010888104072,0,20,7
6.03036284663184,3.17435151219737,2.11153970739826,21.7147543104846,21.7090276403468,0.0332500895875683,0.0481777086893658,-2.07171774378043,6.53271990895377,0,0,7.17555913395606,0,20,7
6.03434989244191,3.18663319860427,2.25029382665485,21.736968879739,21.7297759101674,0.234948015559326,0.0568190596088698,-2.20211611796549,6.02189896042262,0,0,7.20338214620844,0,20,7
6.03824226704967,3.19616155221616,2.35893431283284,21.7586294477533,21.7500315185681,0.336809199596416,0.0657192258107102,-2.30211525322397,5.47695330676447,0,0,7.22493817646353,0,20,7
6.04204611657034,3.20346606101615,2.44299837113266,21.7797652572618,21.7698264494446,0.406401036955231,0.0748547321240949,-2.37727914532195,4.97150010932069,0,0,7.2414317237476,0,20,7
6.04576706484537,3.20893190597215,2.50731236478794,21.8004104216317,21.7891899688212,0.464033454290131,0.084208291303753,-2.43245763266384,4.52141950165247,0,0,7.25373913059532,0,20,7
6.04941040882603,3.21287194814231,2.55536389731287,21.8205961397115,21.8081496416118,0.51723652073224,0.0937658325727284,-2.47115560600912,4.12740225967144,0,0,7.26257229799379,0,20,7
6.05298118407899,3.21554787352751,2.58996279233321,21.8403517653201,21.8267316725054,0.568751684836968,0.103515603914502,-2.49619695976048,3.78487144699938,0,0,7.26852674620001,0,20,7
6.05648393889593,3.2171705325453,2.613442470775,21.8597051694433,21.8449597304509,0.619527279496879,0.113448187415031,-2.5099268668605,3.48813114150556,0,0,7.27208235130632,0,20,7
6.05992271073757,3.21791013153523,2.62767305118729,21.8786815227218,21.8628548260732,0.669911959959393,0.123556041217057,-2.51422486377226,3.23183716084424,0,0,7.27362651632934,0,20,7
6.06330181385187,3.21793155991467,2.6341574435192,21.8973031761534,21.8804394103762,0.720039299305654,0.133831944017231,-2.51060140230214,3.01034299617771,0,0,7.27353454746087,0,20,7
6.06662464555029,3.21735216042198,2.63434529857534,21.9155939315023,21.8977311626989,0.769944115002318,0.144270856324226,-2.50051335455811,2.81944799468977,0,0,7.27207354922351,0,20,7
6.06989459979655,3.21628017724007,2.62926556929068,21.9335725825515,21.9147477449591,0.819640615909577,0.154868218040463,-2.48499471296645,2.65518977567632,0,0,7.26948991208959,0,20,7
6.07311480357887,3.21480756618469,2.61986539369138,21.9512578670788,21.9315054297552,0.869132427027353,0.16562025210834,-2.46499717565092,2.51412641868205,0,0,7.2659929493823,0,20,7
6.07628814592511,3.21301294704999,2.60694820814444,21.968667043301,21.9480192513588,0.918419986540641,0.176523842092649,-2.4413279560361,2.3932726560983,0,0,7.26176161468418,0,20,7
6.07941730183144,3.2109636795531,2.59120034966946,21.985816050761,21.9643031302376,0.967519600108744,0.187576595495841,-2.41467650757681,2.29004198957358,0,0,7.25694922379897,0,20,7
6.08250475155548,3.2087176308996,2.57320968394953,22.0027196431681,21.9803699734551,1.01641983940038,0.198776440162987,-2.38563308845369,2.20219275642074,0,0,7.25168748203637,0,20,7
6.08555279196054,3.20632447804056,2.55348133804966,22.0193914957371,21.9962317337059,1.06510023772125,0.210121556151989,-2.35470489788668,2.12777955263454,0,0,7.2460894486853,0,20,7
6.08877209033423,3.20382408913367,2.53244922511726,22.0358442692406,22.0129847068274,1.1135706098791,0.221610705631406,-2.32232766896527,2.06522245746771,0,0,7.24024585306084,0,20,7
6.09214970347291,3.20125711322761,2.51046179947053,22.0532147001751,22.0305615374156,1.16183491459947,0.233242765239993,-2.28885109383913,2.01289510734279,0,0,7.2342491880329,0,20,7
6.09549613123577,3.19865575478834,2.48787512919807,22.0714318922807,22.0479760817841,1.20989470958466,0.245016991435307,-2.25463236395808,1.96949297866087,0,0,7.22817272455757,0,20,7
6.09881444141674,3.19604495057501,2.46497174340055,22.0894733585565,22.0652443044891,1.25775104750397,0.25693291222359,-2.21995475196525,1.93399303644674,0,0,7.22207319237197,0,20,7
6.10210604578665,3.19344788915398,2.4419708145233,22.107355844715,22.0823735522737,1.30540498035174,0.26899018955595,-2.18503790229971,1.90543272919535,0,0,7.21600333630095,0,20,7
6.1053717125579,3.19088441161802,2.41907664613387,22.1250871482789,22.0993678228544,1.35285759049628,0.281188644550127,-2.15008645657792,1.88297453959046,0,0,7.21000827965733,0,20,7
6.108611868786,3.18837137414306,2.39646451447499,22.1426715878976,22.1162293385941,1.4001100341556,0.293528231396749,-2.11527586992486,1.8658892657823,0,0,7.20412635023843,0,20,7
6.11182698744026,3.18592306666643,2.37428376970956,22.1601116379185,22.1329605607875,1.44716354438884,0.306009013917446,-2.08075553831281,1.85354171058043,0,0,7.19839003377566,0,20,7
6.11501740904985,3.18355157868822,2.35266144019181,22.1774100143423,22.1495632615215,1.49401942234329,0.318631145628331,-2.04665242627436,1.84537832903021,0,0,7.1928268069393,0,20,7
6.11818357084459,3.18126706309499,2.33170538121726,22.1945687153911,22.1660397161052,1.54067902588093,0.331394852300264,-2.01307423558893,1.84091651512756,0,0,7.1874597382884,0,20,7
6.12132580081566,3.17907797547535,2.31150653374681,22.2115902546328,22.1823916313788,1.58714375862229,0.344300416319243,-1.98011168144654,1.83973526168438,0,0,7.18230803335909,0,20,7
6.12444452052531,3.17699128580811,2.29214097605336,22.2284765535417,22.1986212011186,1.63341506007885,0.357348162731682,-1.94784055973412,1.84146706004645,0,0,7.17738751680957,0,20,7
6.12754004980226,3.17501268702143,2.27367174040597,22.2452300319785,22.2147300896881,1.67949439714016,0.370538447121987,-1.91632357767429,1.84579089684445,0,0,7.17271110732769,0,20,7
6.13061279501589,3.17314672565554,2.25615061106674,22.261852558737,22.2307204118011,1.72538325670342,0.383871644779106,-1.88561216394476,1.85242616846199,0,0,7.16828911533239,0,20,7
6.13366306686662,3.17139724154549,2.23961924082982,22.278346463087,22.2465937843179,1.77108313949191,0.397348143906299,-1.85574759605072,1.86112759585933,0,0,7.16413024306005,0,20,7
6.13669125592736,3.16976803808081,2.22411301372659,22.2947135564472,22.262352239749,1.81659555492013,0.410968348653398,-1.82676486982029,1.87168140443089,0,0,7.16024310847613,0,20,7
6.13969766285164,3.16826237278776,2.2096669655532,22.3109560748044,22.2779973426716,1.86192201701198,0.42473268234329,-1.7986986168998,1.88390203400678,0,0,7.15663508726266,0,20,7
6.14268266211473,3.16688199442935,2.19631125372001,22.3270757677594,22.2935310418251,1.90706404079509,0.438641574093708,-1.77157857137672,1.89762771428491,0,0,7.15331012444128,0,20,7
6.14564654367801,3.16562745276659,2.18406259323712,22.3430747769392,22.3089548461455,1.95202313892582,0.452695437689442,-1.74542101914341,1.91271549682023,0,0,7.15026943932115,0,20,7
6.14858966582857,3.1644987218312,2.17292697722667,22.3589547871459,22.3242706201305,1.99681728668367,0.466894819077538,-1.72023153953722,1.92903856184279,0,0,7.14751294063207,0,20,7
6.15151230751386,3.16349534428685,2.16290519194791,22.3747178456833,22.3394798154003,2.0414369984868,0.48124007105605,-1.69601037287038,1.94648485096212,0,0,7.14503955922394,0,20,7
6.15441481104932,3.16261648528248,2.15399409097927,22.3903655712971,22.3545842133375,2.08586363279238,0.495731350321535,-1.67275401992322,1.96495449834606,0,0,7.1428473706517,0,20,7
6.15729744429761,3.16186099281204,2.14618706931623,22.405899918631,22.3695852078779,2.13010843043179,0.510368934770099,-1.65045571899469,1.98435813902609,0,0,7.14093372822349,0,20,7
6.16016053398783,3.16122746080026,2.13947459757941,22.4213224404426,22.3844844992938,2.17417611085483,0.525153060743492,-1.62910566280931,2.00461667758378,0,0,7.13929540866764,0,20,7
6.16300433700342,3.1607142450531,2.13384478247377,22.4366350012571,22.3992834243865,2.21806920993134,0.540083921169014,-1.60869172173028,2.02566032622781,0,0,7.13792864848846,0,20,7
6.16582916497566,3.16031950024207,2.12928350998828,22.4518390888368,22.4139836048602,2.26178952566556,0.555161663791523,-1.58919958881927,2.04742712695764,0,0,7.13682922811258,0,20,7
6.16863526402758,3.16004123132579,2.12577477663837,22.4669364806552,22.4285863215195,2.30533859979323,0.570386390004558,-1.57061311284684,2.06986162248262,0,0,7.13599258881943,0,20,7
6.17142293125097,3.15987731194565,2.12330115008166,22.4819286010537,22.4430931204067,2.34871787802314,0.585758154143605,-1.5529147600771,2.09291404955081,0,0,7.13541387459537,0,20,7
6.17419240230781,3.15982550712735,2.121843936971,22.4968171438665,22.4575052278881,2.39192876329059,0.601276962977977,-1.5360857828274,2.11653982031834,0,0,7.13508798376202,0,20,7
6.17694396034972,3.15988349412439,2.12138338960443,22.5116034719969,22.4718241174619,2.43497263338969,0.616942775391351,-1.52010642662646,2.14069883876249,0,0,7.1350096163706,0,20,7
6.17967783092893,3.16004888102602,2.12189889645487,22.5262891992433,22.4860509628844,2.47785084682585,0.632755502313955,-1.50495612106351,2.16535491432904,0,0,7.13517331650535,0,20,7
6.18239428387576,3.16031922296572,2.12336915309089,22.5408756293062,22.5001871683309,2.52056474473619,0.648715006818691,-1.49061365077694,2.19047527604181,0,0,7.13557350912519,0,20,7
6.18509353501672,3.16069203645454,2.12577231191818,22.5553642996292,22.5142338569455,2.56311565159189,0.664821104422174,-1.47705730509949,2.21603015107041,0,0,7.13620453263679,0,20,7
6.18777584148514,3.16116481159997,2.12908611531105,22.5697564570975,22.5281923668296,2.60550487547101,0.681073563503503,-1.46426501088888,2.24199240177722,0,0,7.13706066665634,0,20,7
6.19044140978433,3.16173502306372,2.13328800992861,22.5840535664832,22.54206377261,2.64773370827169,0.697472105885311,-1.4522144464251,2.26833720922843,0,0,7.13813615690001,0,20,7
6.19309048497012,3.16240014016176,2.13835524974195,22.5982568203192,22.5558493495379,2.68980342586912,0.714016407504914,-1.44088314385664,2.29504179969825,0,0,7.13942523812102,0,20,7
6.19572326463261,3.16315763517131,2.14426499130451,22.6123676143395,22.5695501258564,2.73171528833126,0.730706099224108,-1.4302485837996,2.32208520682894,0,0,7.14092215296797,0,20,7
6.19833998235692,3.16400499017252,2.15099437291349,22.6263870892061,22.583167317124,2.77347054010698,0.747540767689259,-1.42028827368938,2.34944806477409,0,0,7.14262116751102,0,20,7
6.20094082722964,3.16493970517252,2.15852058054878,22.6403165751559,22.5967019073321,2.81507041027845,0.764519956313165,-1.41097981285952,2.37711242850855,0,0,7.1445165896782,0,20,7
6.20352602195473,3.16595930248413,2.16682092497274,22.6541571634393,22.6101550554147,2.85651611278058,0.781643166295908,-1.40230096865957,2.40506161881581,0,0,7.14660277918003,0,20,7
6.20609574751942,3.16706132629504,2.17587288530916,22.6679101222239,22.6235277032149,2.8978088466792,0.798909857667581,-1.39422971901325,2.43328008142299,0,0,7.14887414650863,0,20,7
6.20865021631506,3.16824334997574,2.18565410969342,22.6815764957583,22.6368209560003,2.93894979604363,0.816319450320577,-1.38674425202584,2.46175326126121,0,0,7.15132516951557,0,20,7
6.21118960162446,3.16950298990452,2.19614248438972,22.6951574934352,22.6500357155209,2.97995637778553,0.833871483125051,-1.37982303406915,2.49046787456086,0,0,7.15395042266528,0,20,7
6.21371410607499,3.17083790369311,2.20731626040043,22.7086541148446,22.6631730362335,3.02081891112005,0.851565298738137,-1.37344477727538,2.51941186427462,0,0,7.15674457722665,0,20,7
6.21622389563076,3.17224577655819,2.21915404131886,22.7220675137726,22.6762337818022,3.06151867769262,0.86940004542771,-1.36758874258072,2.54857316614755,0,0,7.15970237028612,0,20,7
6.21871916367631,3.17372432855785,2.23163466591535,22.7353986474275,22.6892189585847,3.1020664377715,0.887374994605977,-1.36223462048764,2.57793951423514,0,0,7.16281861690621,0,20,7
6.2212000692206,3.17527132631379,2.24473727562247,22.748648616993,22.702129394051,3.14246651765978,0.905489383490078,-1.35736228101649,2.60749956056793,0,0,7.16608823885374,0,20,7
6.22366679689941,3.17688458118362,2.25844142142182,22.7618183394386,22.7149660490311,3.18272109016306,0.923742416358607,-1.35295203793174,2.63724293482585,0,0,7.16950626041967,0,20,7
6.22611949911958,3.17856194966277,2.27272705032442,22.7749088661888,22.7277297166382,3.22283160187641,0.942133265824566,-1.34898463396581,2.66715987857663,0,0,7.17306780930314,0,20,7
6.22855835224151,3.18030133393964,2.28757451140694,22.7879210760459,22.7404213146375,3.26279924905748,0.960661074054599,-1.34544124558238,2.69724122346321,0,0,7.17676811784463,0,20,7
6.23098350240786,3.18210068235828,2.30296456298856,22.8008559733926,22.7530416035441,3.30262513666446,0.979324953952755,-1.34230348893396,2.72747812969772,0,0,7.18060252404954,0,20,7
6.23339511815244,3.18395799016168,2.31887837877917,22.8137144008423,22.7655914603944,3.34231033161063,0.998123990352894,-1.33955342482642,2.75786196816421,0,0,7.18456647324919,0,20,7
6.23579333936042,3.18587129916,2.33529755630411,22.8264973183076,22.7780716131398,3.38185588038635,1.0170572412726,-1.33717356595122,2.7883845169365,0,0,7.18865551731943,0,20,7
6.23817832648233,3.18783869767579,2.3522041156279,22.8392055324226,22.7904828967521,3.42126281477556,1.03612373907544,-1.3351468743553,2.81903797567327,0,0,7.1928653145301,0,20,7
6.24055021372206,3.18985832131502,2.36958050035145,22.8518399574522,22.8028260096177,3.46053215413099,1.055322491661,-1.33345676127601,2.84981486878519,0,0,7.19719163126913,0,20,7
6.24290915516668,3.1919283527949,2.38740958572862,22.8644013672723,22.8151017535935,3.49966490637956,1.07465248361621,-1.33208709406762,2.88070802508463,0,0,7.20163034162556,0,20,7
6.24525528003212,3.19404702095974,2.40567467827577,22.8768906397807,22.8273108011088,3.53866206855008,1.09411267737443,-1.33102219465957,2.91171055449252,0,0,7.20617742512908,0,20,7
6.24758873587461,3.19621260045996,2.42435950806873,22.8893085199138,22.8394539200345,3.57752462705156,1.11370201431623,-1.33024683069431,2.94281583067396,0,0,7.21082896599632,0,20,7
6.24990964687218,3.19842341128899,2.4434482267597,22.9016558484664,22.8515317565835,3.61625355794865,1.13341941588305,-1.32974621244347,2.97401745707231,0,0,7.21558115205455,0,20,7
6.25221815432483,3.20067781821194,2.46292540420751,22.9139333413105,22.8635450460695,3.6548498271502,1.15326378463692,-1.32950598832446,3.00530917646705,0,0,7.22043027342067,0,20,7
6.25451437760777,3.20297423016912,2.48277602403135,22.9261418037365,22.8754944097117,3.69331439064706,1.17323400532939,-1.32951223939443,3.03668498586609,0,0,7.22537272112311,0,20,7
6.25679845209782,3.2053111015567,2.5029854788317,22.9382819239281,22.8873805520004,3.73164819467365,1.1933289459356,-1.32975147350231,3.06813928177763,0,0,7.23040498998581,0,20,7
6.25907049261182,3.20768692780706,2.52353958181095,22.9503544735697,22.8992040704331,3.76985217592983,1.21354745867825,-1.33021063587535,3.09966666378284,0,0,7.23552366857159,0,20,7
6.26133062892402,3.21010024741696,2.54442452814487,22.9623601145738,22.910965640345,3.80792726174593,1.23388830294385,-1.33087706946662,3.13126184760836,0,0,7.2407254448264,0,20,7
6.26357897152659,3.2125496587519,2.56562691300945,22.9742995868423,22.9226658367284,3.84587437028978,1.25434978605784,-1.3317386100656,3.16291974560829,0,0,7.24600714910792,0,20,7
6.26581564489561,3.21503381131388,2.5871338791452,22.9861735273681,22.9343053073468,3.88369441072228,1.27492980330919,-1.33278409308735,3.19463548215003,0,0,7.2513657338263,0,20,7
6.26804075542155,3.21755138917237,2.60893303977622,22.9979826459984,22.9458846058481,3.92138828340217,1.29562620425855,-1.33400323646703,3.22640438466772,0,0,7.2567982308512,0,20,7
6.27025442256831,3.2201011124665,2.63101233298596,23.009727556094,22.9574043539126,3.95895688002702,1.31643683576726,-1.33538612872741,3.25822194929867,0,0,7.26230175433061,0,20,7
6.27245674883373,3.22268174459901,2.65336003487118,23.0214089390705,22.9688650849311,3.99641711343003,1.33735969529408,-1.33692319910392,3.29008419951049,0,0,7.26787351491982,0,20,7
6.27464784894046,3.22529208907069,2.67596482241311,23.0330273858631,22.9802673959113,4.03375916823609,1.35839261570948,-1.33860512711902,3.32198770882331,0,0,7.2735108168855,0,20,7
6.276827821694,3.22793097321446,2.69881574538306,23.0445835509913,22.9916118010289,4.07096431726791,1.37953326372406,-1.34042312967358,3.35392844766596,0,0,7.279211021211,0,20,7
6.27899677732772,3.2305972531512,2.72190208370563,23.0560780041176,23.0028988739297,4.10804292082503,1.40077945063928,-1.34236881998157,3.38590167938514,0,0,7.28497155259778,0,20,7
6.28115481113638,3.23328982299242,2.74521339077882,23.0675113742942,23.0141291105202,4.14499899716816,1.42212897400083,-1.34443394013954,3.41790312032458,0,0,7.29078992250524,0,20,7
6.28330202909941,3.23600761081748,2.76873957366985,23.078884210959,23.0253030623088,4.18183444515881,1.44357961620983,-1.34661059966902,3.44992903750898,0,0,7.29666372003355,0,20,7
6.28543852317677,3.23874957727861,2.79247085750416,23.0901971190307,23.0364212078477,4.21855045216881,1.46512914335682,-1.34889124129433,3.48197594795874,0,0,7.30259060876757,0,20,7
6.28756439531929,3.24151471464632,2.81639777285596,23.1014506287358,23.0474840776812,4.25514796341753,1.48677530417257,-1.35126862949915,3.51404059950119,0,0,7.30856832461943,0,20,7
6.28967973431902,3.24430204599103,2.84051114697877,23.1126453221341,23.058492133876,4.29162783857669,1.50851582912765,-1.3537358428062,3.54611973458151,0,0,7.31459467397799,0,20,7
6.29178463831036,3.24711062479829,2.86480209620726,23.1237817112006,23.0694458871156,4.32799090399033,1.53034842972767,-1.35628626707961,3.57821006683156,0,0,7.32066753284002,0,20,7
6.29387919307508,3.24993953402387,2.88926202212059,23.1348603563358,23.0803457838017,4.36423797018557,1.55227079802046,-1.35891359239292,3.61030847773179,0,0,7.32678484466742,0,20,7
6.29596349313123,3.25278788535442,2.91388260280604,23.1458817521685,23.0911923157986,4.40036983775173,1.57428060618577,-1.36161180478558,3.64241202269824,0,0,7.33294461870999,0,20,7
6.29803762139932,3.25565481842492,2.93865578590578,23.1568464385711,23.1019859146181,4.43638729941955,1.59637550629606,-1.36437517972001,3.67451787004143,0,0,7.3391449282282,0,20,7
6.30010166896974,3.25853950009083,2.96357378127976,23.1677548936816,23.1127270542873,4.47229114078522,1.61855313018521,-1.36719827498371,3.70662329431184,0,0,7.34538390883815,0,20,7
6.30215571604257,3.26144112367563,2.98862905413955,23.17860763791,23.1234161521612,4.50808214066086,1.64081108948386,-1.37007592395435,3.73872566859131,0,0,7.35165975679934,0,20,7
6.3041998504583,3.26435890825296,3.0138143179654,23.1894051337114,23.1340536653545,4.54376107122187,1.66314697576126,-1.37300322848154,3.77082246072996,0,0,7.35797072737889,0,20,7
6.30623414982967,3.26729209977376,3.03912252772187,23.2001478830372,23.1446399977578,4.57932869815937,1.68555836087666,-1.37597555196061,3.80291123193086,0,0,7.36431513739906,0,20,7
