Pdis,Psuc,T0,Tc,Tdis,Tret,Tsuc,Tsh,Tsup,CondFan,CprPower,Density,Cpr,Tset,Tamb
8.46390366050748,3.83687739957255,7.70061430087759,33.3215189054102,39.3332040882696,20.1243009627785,14.6155284861204,6.91492267232962,12.0150018133705,70.2390989490021,1088.91558580471,8.45186457888111,35.3280981904325,12,30
8.45247478039442,3.86465831885031,7.70057736180695,33.3215434237426,39.0704349151051,20.1243370849759,14.6205242933153,6.91495112431346,12.0337102143785,70.2393713749182,883.691173780397,8.51340303389143,28.2626536152855,12,30
8.43264475517376,3.93038929169203,7.91284487170714,33.2734162756031,38.3216198716742,20.1245878750992,14.6323349946734,6.70767942160819,12.1554426698634,69.7046252844789,691.474823001346,8.65902558810413,28.293432414883,12,30
8.41287363548776,3.98335111650519,8.41047819148997,33.1897956158641,37.535937561627,20.1245215699788,14.6082069701992,6.22185680318347,12.3169458384617,68.7755068429346,676.876071515607,8.77692252363932,28.4936739781486,12,30
8.39303298585577,4.02241193737285,8.80683723511277,33.1062760678876,36.8426673910431,20.1204853029028,14.5128010213157,5.80136973508644,12.4426371513916,67.847511865418,711.875282495718,8.86516303354507,28.7644332961365,12,30
8.3701508956,4.05727450397277,9.09659351082462,33.0223143452128,36.1466322548884,20.1104149079652,14.3219241246228,5.41620751049106,12.5559823780156,66.9146038356978,742.982520715123,8.94569959770076,28.9838261332483,12,30
8.35582742029214,4.08414172571379,9.35339903157023,32.9252963726806,35.4487884936277,20.0972773194449,14.0086135306646,4.96852509305256,12.6804384427798,65.8366263631182,808.819043068079,9.01057440865056,29.1906583364563,12,30
8.34648408113043,4.0991707215542,9.55016285556536,32.8644646335298,34.5906781144627,20.0839633292675,13.6687766723016,4.45845067509924,12.7786740425254,65.1607181503317,925.477761899574,9.04964926512461,29.4258448926262,12,30
8.3409549659537,4.10474352728511,9.65979839029916,32.8247412519861,33.6333061579495,20.0710177024782,13.348063659928,4.00897828200249,12.834268991747,64.71934724429,1091.01575158369,9.06741212665843,29.6259246347589,12,30
8.3300122614871,4.10251443036416,9.70037372644651,32.8012183675933,32.6929348855698,20.0590980353345,13.0478452039263,3.64768993348144,12.849121769568,64.4579818621474,1134.93532886734,9.0674810536056,29.7585020868847,12,30
8.3208182375842,4.09465886107972,9.68414882142571,32.7546295076744,32.654620018896,20.0498236646838,12.7721670930536,3.36369638250062,12.8321594360146,63.9403278630488,1173.15949015512,9.05460443701465,29.8213347389075,12,30
8.31733604877749,4.08378676394741,9.6269169153116,32.7154501190383,32.6401084621205,20.0442941111449,12.5222525084353,3.14525017774201,12.7966388751158,63.5050013226476,1227.7437073805,9.03456089821295,29.8255041531905,12,30
8.31618500470603,4.07189814121884,9.54756971567684,32.7006026309916,32.6353116396846,20.0427964745415,12.297976307114,2.97468279275847,12.7538491946841,63.3400292332396,1281.91013840179,9.01180502701387,29.7920614651786,12,30
8.31675603479578,4.06042844912335,9.46061901838004,32.6956937381112,32.6376913313176,20.044816759612,12.0988325636205,2.83735728873393,12.712025651969,63.285485979013,1328.79698464513,8.98954684499169,29.7406535282179,12,30
8.31846561749569,4.04999824324817,9.37654855013977,32.6981290914566,32.6448157888899,20.049393441472,11.9223014586836,2.7222840134807,12.6756067361125,63.3125454606291,1369.48133021155,8.96921628746732,29.6867661478001,12,30
8.3209079458345,4.04109697139494,9.2999398722061,32.7054194407527,32.6549938660478,20.0552786991656,11.7684866642341,2.6223615864775,12.6453340371392,63.3935493416964,1399.73316802051,8.9519081814738,29.6395132813528,12,30
8.32368988545274,4.03331617603056,9.23444190850159,32.7158325587324,32.6665872278547,20.0617970153331,11.6342545370788,2.53404475573251,12.621341739354,63.5092506525824,1423.75373749258,8.93676731868115,29.6011512550432,12,30
8.3265592871021,4.02672116523704,9.17709848977387,32.7276908452853,32.678545075995,20.0680688124855,11.5195436761688,2.45715604730498,12.6014120022604,63.6410093920593,1440.40987457328,8.92394367352972,29.5726983729598,12,30
8.32933069823339,4.02107336072536,9.12842801613664,32.7399188259455,32.6900945617386,20.0737376967552,11.4236645207118,2.3911156600322,12.5843511414679,63.7768758438388,1451.24932305003,8.91291870272786,29.5504033694588,12,30
8.33189254110324,4.01619845757698,9.0866994523775,32.7517262118837,32.7007706997425,20.0787106936925,11.3463305500843,2.33696506833434,12.5693222090755,63.9080690209305,1457.09053701246,8.9033099406523,29.532299091804,12,30
8.33413020135023,4.01189830453427,9.0506454609943,32.7626381214501,32.7100958499628,20.0830746629928,11.2874452878087,2.29568508909,12.5558893227574,64.0293124605566,1446.32596658709,8.89467799714937,29.5169946327502,12,30
8.33586040213414,4.00804111351183,9.01881449651364,32.7721671444107,34.2705222127703,20.0869288706537,11.2473656315963,2.2686307912951,12.543650043635,64.1351904934526,1410.74263034502,8.88672382947675,29.5038173217712,12,30
8.34084813140881,4.00415838916595,8.99024030528085,32.7795338447625,34.8523486220635,20.0903913998699,11.2253622902102,2.25712532631542,12.5318099341853,64.2170427195828,1291.52708100671,8.87841400660148,29.4921109671753,12,30
8.34291308649408,4.00035012622445,8.96145576071092,32.8007637388168,35.4216957155297,20.0935383094855,11.218698830373,2.26390652949925,12.5195715664002,64.4529304312982,1175.27231204532,8.87001768486494,29.4803760487904,12,30
8.34247751148951,3.99557883767585,8.93320253598307,32.8095502710289,35.8534908955284,20.0964821290049,11.2922594973581,2.28549629438993,12.5073488861726,64.5505585669879,1057.34185303272,8.85815299824741,29.4670442189151,12,30
8.34051959975641,4.0015056249159,8.89777571114212,32.8076970041739,36.12530202108,20.0994414778793,11.504711092756,2.39448378621603,12.5822193755874,64.5299667130429,947.121259512942,8.86789685186339,29.4529861470188,12,30
8.3387171201622,4.00423925046404,8.94177726478807,32.7993656622502,36.3132256586899,20.1026638123744,11.8110603272575,2.56293382796792,12.7293600258761,64.4373962472242,894.863935893821,8.86896538494773,29.6182971789645,12,30
8.33708195360666,3.9982528098166,8.96205544240496,32.7916944180271,36.5089426388708,20.103418689265,12.170574450119,2.84900488485249,12.8634735403718,64.3521602003009,877.213033485334,8.84971874131076,29.9390556828337,12,30
8.33584372261029,3.98265224489677,8.9176339326429,32.7847341694747,36.744705861622,20.0983705138516,12.5456493604137,3.25294051747613,12.9431669681306,64.2748241052749,885.327622299188,8.80882658108953,30.2437612075141,12,30
8.33520447929699,3.95858404484902,8.80163324153642,32.7794628336054,37.0402242818127,20.0883880185806,12.9156370452683,3.74401611887731,12.9456266579333,64.2162537067267,900.722919977899,8.74922817785458,30.4437928024303,12,30
8.33529261153723,3.93145425900369,8.62198784241832,32.7767412481249,37.3722085459474,20.0777057257234,13.2700474968762,4.29364920285002,12.8951260795596,64.1860138680544,904.689612254991,8.68315838615825,30.4833780545784,12,30
8.33503043635012,3.90644347166152,8.41848831322693,32.7771164814387,37.7068121123018,20.0706071586081,13.6087166385175,4.85155918364927,12.8350454772993,64.1901831270969,891.675904601749,8.62214338048098,30.4064764993849,12,30
8.33363039383754,3.88637280156696,8.22993128442442,32.7760002311745,37.9943584902082,20.0694206145831,13.9358784419084,5.37878535409311,12.8018226956805,64.1777803463836,866.765278225216,8.57236572889227,30.3034328690154,12,30
8.33073338301491,3.87078757636306,8.07795009504804,32.7700388928516,38.2175885175661,20.0733827999921,14.2525704791968,5.85792834686032,12.8068408713766,64.111543253907,842.58741078779,8.53277332814325,30.2546961447813,12,30
8.32674937914171,3.8569826966713,7.95952006487596,32.7577011177782,38.4034641119854,20.0794737990585,14.5605604488982,6.29305041432087,12.8258847277876,63.9744568642022,823.143101767456,8.49731557395032,30.2883752183403,12,30
8.32342927602298,3.84273179200797,7.85431407829128,32.7407287929661,38.5765715347785,20.0850687349373,14.853451504982,6.70624637060689,12.8338832886118,63.7858754774009,815.372779716672,8.46114678941475,30.3535723191108,12,30
8.3205865121461,3.82806107882108,7.74540681116389,32.7265800989013,38.7459937336541,20.0885686081272,15.1260989747771,7.1080446938181,12.8111533169456,63.6286677655701,811.395852499006,8.42440288479498,30.3948460891446,12,30
8.31758866173822,3.81508193768283,7.63296852606283,32.7144622244767,38.8973301440179,20.0905982079676,15.3745993603826,7.49313044871423,12.7613455454158,63.4940247164075,803.659920030673,8.39181635937832,30.366352526077,12,30
8.31440982939148,3.80593153983791,7.53321987723717,32.7016798888698,39.0126640164151,20.0929704376873,15.6010518345967,7.84137948314543,12.7042112589172,63.3519987652202,790.507509795901,8.36807468393352,30.2739385282642,12,30
8.31099028862881,3.80190395259749,7.46274033901062,32.688122092123,39.0814825320742,20.0971223314428,15.8073248235049,8.13831149558609,12.6563262103636,63.2013565791447,771.718026303215,8.35599729352379,30.1612426610643,12,30
8.3073966566248,3.80266969865217,7.43167742252018,32.6735333164937,39.0934782513342,20.1032365741054,15.99472231456,8.37564740098469,12.6238332137576,63.0392590721518,748.321911927027,8.35481997507159,30.0663498082554,12,30
8.30371807433075,3.80689462336652,7.43758520269273,32.6581969517484,39.0555155413047,20.1106388225185,16.1652318848535,8.55713711186723,12.600764799698,62.8688550194271,727.166681621497,8.36155066625435,30.0042778457424,12,30
8.30011280200866,3.81362430111461,7.4701644350568,32.6424928818416,38.9816277826425,20.117940550043,16.3154356352662,8.69506744979668,12.5779634849841,62.6943653537953,715.392179147551,8.37412537393427,29.9622765123854,12,30
8.29672035739805,3.82243488404266,7.52200130991696,32.6270967001593,38.8811852289966,20.1242765163873,16.4426740679637,8.79343432534927,12.5490586876169,62.5232966684368,704.628474068847,8.391645117541,29.919804199636,12,30
8.2936251533926,3.83339961445973,7.58976128477997,32.6126047990644,38.7524913316128,20.1297005706538,16.5451672669522,8.85291278318374,12.5149944658646,62.36227554516,694.802864656295,8.41429831525647,29.8622909719495,12,30
8.29093653729134,3.84686352634178,7.67392180848225,32.5993787680429,38.5926454601648,20.1346116802536,16.6192242003562,8.87124545846996,12.4822050664975,62.2153196449208,685.639517278534,8.44290514651601,29.7918080186141,12,30
8.28867219341242,3.86277128957049,7.77701377636964,32.5878871043287,38.4017980240681,20.139630201377,16.6653021951099,8.84221042398656,12.4575533303819,62.0876344925414,677.257691700734,8.47733914207326,29.7231451909921,12,30
8.28678761057389,3.8805549997999,7.89846348447702,32.5782066881821,38.1849687484966,20.1450197792348,16.6865982319259,8.7668387106329,12.4432241560359,61.980074313135,670.340209783619,8.51630045205349,29.6722355917604,12,30
8.28552247391732,3.89935169630997,8.03378390342488,32.5701482923092,37.9466320014577,20.1501461226255,16.6755919110013,8.65281432850099,12.4394073914314,61.890536581213,669.207714413264,8.55800584084664,29.6443641840999,12,30
8.28480081553007,3.9185331680022,8.17629848518459,32.5647378488906,37.6923204660596,20.1548009392822,16.6374736566747,8.49929342581675,12.4430677122007,61.8304205432291,671.327185200116,8.60099336561782,29.6402241382322,12,30
8.28476724086802,3.9372560879404,8.32119058035261,32.5616513492375,37.4305193626904,20.1584889551469,16.5676467869978,8.31628307632212,12.4518080014876,61.7961261026387,679.054006868763,8.64347881419426,29.6531157697273,12,30
8.2854617120173,3.95512409456574,8.46209753393526,32.5615077470348,37.1697097779997,20.1610966924359,16.465391092211,8.10554925306258,12.4639223461537,61.7945305226088,691.306485931108,8.68460455012568,29.6777406626143,12,30
8.28689681488853,3.97184098783157,8.59609423048875,32.5644779808384,36.9247444433896,20.1627492001487,16.331230914058,7.8692968617222,12.4786058442428,61.8275331204264,707.439268537241,8.72371351048832,29.7103399263374,12,30
8.28907066044917,3.98720953159502,8.72104066662405,32.5706152829096,36.6920435183863,20.163686482215,16.1659645749368,7.61019024743393,12.4950403393944,61.8957253656624,727.578088504668,8.76036158520801,29.7491826565462,12,30
8.29187856568924,4.00095011191487,8.83555553635125,32.5799103398127,36.4764870108343,20.1641121190431,15.9751971426973,7.33040903858557,12.5138190401655,61.9990037756963,750.779615131342,8.79384304655548,29.7924988073178,12,30
8.29527324894559,4.01278537324161,8.93765514782109,32.591913834197,36.2816433145291,20.1641928074888,15.762066107208,7.03754199487622,12.5345429167684,62.1323759355227,775.136703157531,8.82349376194682,29.8417237984696,12,30
8.29916261926393,4.02249077908568,9.02538296384307,32.606421661626,36.1111058813887,20.164033818496,15.5321468111282,6.73668314336493,12.5556665490686,62.293574018067,801.181587043884,8.84872419781298,29.8960622887736,12,30
8.30344701943114,4.03058123063074,9.09717618917614,32.6230381428196,35.9695697686005,20.1636665590321,15.2918494870156,6.43497062195206,12.5779433636853,62.4782015868839,824.062106702336,8.87056721430143,29.9520941997822,12,30
8.30802448929773,4.03717239059333,9.15692226042393,32.6413355266935,35.8468049793958,20.1633207781152,15.0460130064804,6.13492722659169,12.6108853340343,62.6815058521496,847.179211362757,8.88919650302049,30.0116002865203,12,30
8.31274137120502,4.04035021572113,9.20552881370196,32.6608766815913,35.7591029126509,20.1629412580826,14.7997318416141,5.84048419277843,12.6396166385273,62.8986297954586,875.616448592256,8.9002777631082,30.0965163727266,12,30
8.31755251003101,4.04021719572437,9.22894207565071,32.6810045180579,35.7183709469674,20.1621879175052,14.5607984365395,5.57078976596335,12.6554883841355,63.1222724228653,903.972347953715,8.90389984842982,30.1732360185516,12,30
8.32232540546974,4.03731157940171,9.22796230603689,32.7015257228671,35.7267283610864,20.1611104794235,14.3384802053926,5.33283613050264,12.6567520973218,63.3502858096342,928.383870145447,8.90109567001818,30.2216145050769,12,30
8.32693381070236,4.03227728859867,9.20655460947813,32.7218749898402,35.7809899423771,20.1601563108585,14.1394439801173,5.13192559591448,12.6466795990321,63.5763887760024,947.412703944013,8.89317863749006,30.2368771785703,12,30
8.33108463722873,4.02596629170172,9.16943564304376,32.7415146278504,35.8861481628093,20.1602297095436,13.9837457212268,4.97000833707352,12.6272761658225,63.7946069761155,954.686995509848,8.8817088932789,30.2257888342098,12,30
8.33471071158004,4.02048178880657,9.12285325174793,32.759197209274,36.0285386163899,20.1615907901273,13.8779793792056,4.86089246947887,12.6121116536346,63.9910801030447,943.908549781412,8.87125260767218,30.192424678561,12,30
8.33769560166037,4.01741678281408,9.08232606136812,32.7746389191863,36.169766617661,20.1644072149438,13.8327201464047,4.79565331783749,12.6327670807215,64.1626546576251,922.916923952973,8.86518095911035,30.1679375807519,12,30
8.339918918604,4.0134836948838,9.05965912512772,32.7873463435484,36.3192097441132,20.1682042270265,13.850149462309,4.77306102127699,12.6779066496319,64.3038482616488,905.037689119852,8.85615478088743,30.2261228064165,12,30
8.34163991174134,4.0075010024975,9.03055303853972,32.7968093380477,36.4840451620649,20.1713370609685,13.9193724000214,4.81959642376933,12.7294348583112,64.4089926449744,891.078553735772,8.84172986861282,30.3424307631286,12,30
8.34298636581966,3.99857752057569,8.9862374713104,32.8041330142976,36.6655853926471,20.1725173045276,14.0311891062508,4.93313492871096,12.7716380663946,64.4903668255293,881.578809429194,8.82008268767888,30.4760657922034,12,30
8.34413390193856,3.98678248255812,8.92004470293824,32.8098620497816,36.863438685431,20.1716451900872,14.1693441074565,5.11114440331261,12.7991668259955,64.5540227753511,877.312452307894,8.79164083020671,30.5906511021365,12,30
8.34496371610386,3.97254922670949,8.83237804149559,32.8147441594222,37.076939621119,20.1696209968376,14.3283646260942,5.33696606596089,12.8082941444833,64.608268438024,873.867754609935,8.75746505361314,30.6729707989339,12,30
8.34542815063114,3.95714124509502,8.72632535900703,32.8182742294573,37.2960675990957,20.1677771764741,14.5006178674358,5.60203926708721,12.80418574326,64.6474914384145,867.968309364999,8.72049196350278,30.7130744106795,12,30
8.34544951726288,3.94181544048787,8.6111923034951,32.8202498414638,37.5149368180238,20.1671145448475,14.6811454987652,5.88942556394073,12.7948171884761,64.6694426829312,858.785528790073,8.68359500981103,30.7218958129429,12,30
8.34497967417052,3.92743925955668,8.49633331593532,32.8203407288721,37.7229804202571,20.1680745738183,14.8667354305186,6.18481218282989,12.7867967243982,64.6704525430235,847.361985081722,8.64875045508131,30.7175881419112,12,30
8.34401840800209,3.91425196431154,8.38828095143231,32.8183421132668,37.9116768547851,20.1704933165294,15.0544575408307,6.47845447908634,12.7821121850492,64.6482457029644,835.503539378147,8.61653356801061,30.7157041208594,12,30
8.34261669826828,3.90209022673802,8.28889845323988,32.8142528216462,38.0802809005955,20.1738082171839,15.2410277726103,6.76555908759082,12.7778560392468,64.6028091294025,824.622347833012,8.58663148954906,30.721165753068,12,30
8.34084496178147,3.89085282557909,8.19701792468896,32.8082892183411,38.2274915949081,20.1774249414107,15.4228289229811,7.0440098479213,12.7692343740919,64.5365468704565,815.557045172069,8.55887394496228,30.727183280011,12,30
8.33877056330174,3.88069881700312,8.11192606691907,32.8007502505679,38.355525158681,20.1810442397544,15.5967797392157,7.31090285606206,12.7533413326935,64.452780561866,807.083123387502,8.53365815395437,30.7221668638396,12,30
8.33644850227616,3.87215704860869,8.03487630976343,32.7919218867318,38.4619122645805,20.1847126453983,15.7601938200567,7.56190342945223,12.7307763802405,64.3546876303535,798.016453026056,8.51219268751398,30.6987957357807,12,30
8.33392661052952,3.86586423658503,7.96994108001934,32.7820375452828,38.5415225951314,20.1886771363467,15.9112279003763,7.79025274003737,12.7056048408575,64.2448616142531,787.764818014402,8.49591000393075,30.6581477334023,12,30
8.3312606429623,3.86210624366673,7.92203257734764,32.7713002372888,38.5914773743728,20.193167927755,16.0493312029772,7.98919532302864,12.6816008785105,64.1255581920979,776.577101553612,8.48544509499622,30.6098587327882,12,30
8.32851467744726,3.86081126812129,7.89339377195512,32.7599468498656,38.611744882564,20.1981795119594,16.174051979605,8.15593743102204,12.6600396976033,63.9994094429514,765.368096893652,8.48064065092253,30.5631171780753,12,30
8.32572604734142,3.86158560976063,7.88352012807138,32.7482499243486,38.6059698197946,20.2036765816288,16.2868829605471,8.29053185153361,12.6397666966174,63.8694436038735,754.341389790048,8.4805985370181,30.521194283734,12,30
8.32299834237951,3.86435715794724,7.88942446140476,32.7363682937444,38.5735021526524,20.2092715687511,16.3844321710771,8.39745849914232,12.6195728150067,63.7374254860491,745.126059717047,8.48520908657153,30.4814634475356,12,30
8.32041065715045,3.86905722697045,7.91055003041873,32.7247433544038,38.516343583948,20.2147073775506,16.4654351792242,8.47388214065836,12.5995450508565,63.6082594933751,736.983350084477,8.49433812012368,30.4410996262576,12,30
8.3180276262244,3.87556859645604,7.94634892317271,32.713712503625,38.4357147696905,20.2199646096556,16.5288316824215,8.51908625605148,12.5806473314477,63.4856944847223,729.963228866957,8.50774208825554,30.400386033887,12,30
8.31590364461625,3.88373413419109,7.99588905799857,32.7035517768749,38.3335001822959,20.2250901887307,16.5739248978458,8.5329426244229,12.5642486936405,63.3727975208318,724.067703904458,8.52508468747494,30.3617397216477,12,30
8.31409630734861,3.89331633546622,8.05792475488101,32.6944937354319,38.2115833035299,20.2301048387094,16.5998023260937,8.5160001429648,12.5514767039726,63.2721526159097,719.983863617682,8.54585643465381,30.3285806359941,12,30
