Pdis,Psuc,T0,Tc,Tdis,Tret,Tsuc,Tsh,Tsup,CondFan,CprPower,Density,Cpr,Tset,Tamb
7.95424468210664,2.6650535430874,-2.56942574184018,31.1261080288998,46.6062153077687,5.16264619092362,3.14436510611438,5.71379072002117,0.00346509475747325,45.8456447655534,1124.23875682205,5.98343276550052,25.7133106002571,0,10
7.94066444886148,2.71682026513308,-2.56943242767119,31.1261129994238,46.1160032283064,5.1626985804586,3.15190294127746,5.71379753378557,0.0528511320599705,45.8456999935979,637.951716292577,6.10018916292305,5.14267251080828,0,10
7.91990540959197,2.84639019888525,-2.04867091559214,31.0661843802068,44.6275654457959,5.16318382227269,3.1732229239816,5.2005738568696,0.401452951497163,45.179826446742,182.534122735381,6.3924850971831,5.16268611771605,0,10
7.88915278881451,2.98754550038999,-0.777962454689259,30.9744269980997,42.9117248972483,5.16325549325649,3.17361644940576,3.95118537867086,0.993159317364984,44.1602999788851,57.1286727321727,6.71134386369844,5.30568092555825,0,10
7.85443561094159,3.12218872998914,0.556653056148548,30.8381636644717,41.1081205553397,5.15567203260196,3.14869942077496,2.61696339325721,1.78574120655873,42.6462629385741,69.4127290420979,7.01598743132578,5.50568092555825,0,10
7.80937061203896,3.22555405706731,1.78524759181624,30.6838524780163,39.0516220980259,5.13349378032075,3.14025862085481,1.36345182895872,2.55095181096743,40.9316942001807,72.8874934769656,7.2498449495378,5.70568092555825,0,10
7.76461694627108,3.29382869497018,2.70110822628146,30.48277987443,36.3607467857004,5.09597585004883,3.17270061911631,0.439150394573346,3.1693371682756,38.6975541603337,72.6982550228237,7.40384077512226,5.90568092555825,0,10
7.72554461753522,3.29800997366271,3.29376914567001,30.2822304059708,33.7657287395139,5.04992187844977,3.22569445825877,-0.121068526553699,3.57898801632149,36.4692267330087,71.9728957303663,7.41256449974211,6.10568092555825,0,10
7.69012485860435,3.29524136569951,3.32975760715749,30.1064275428323,31.8842943753152,5.00573129048428,3.26681179017271,-0.104063148898717,3.83021570112817,34.5158615870256,235.906185688967,7.4057315606779,6.30568092555825,0,10
7.65805913423836,3.27739042326337,3.30593198581062,29.9464799109969,29.7461151239413,4.97103268015888,3.29559559210622,-0.0391201956379064,4.0631424149002,32.7386656777435,417.527185327752,7.36495934910081,6.50568092555825,0,10
7.62869789727237,3.23164993594805,3.15194360755356,29.8011994079858,29.6094012990926,4.94819878445816,3.29370042171104,0.143651984552662,4.26130931057605,31.1244378665088,592.188108608646,7.26154749824545,6.70568092555825,0,10
7.60304976968052,3.16528983914356,2.75441294020334,29.6677700045735,29.4899767112473,4.93438474320601,3.24484928795363,0.539287481507699,4.40938183768674,29.6418889397059,774.810331239103,7.11216262397448,6.90568092555825,0,10
7.58218503611867,3.08859795095669,2.16992965828757,29.5508977707898,29.3928248939382,4.9263707757932,3.14106941311911,1.07491962966606,4.46143444122129,28.3433085643316,941.849203615201,6.94014691699809,7.10568092555825,0,10
7.56564244755523,3.07091549671489,1.48260843259141,29.4556031603718,29.8850883086354,4.92182929276879,3.0021518494537,1.65846098052771,3.72265907022216,27.2844795596863,955.301585988456,6.90196722981669,7.30568092555825,0,10
7.5499984655926,3.13203211624145,1.3222797733232,29.3799084870979,30.9712298881759,4.92027721796865,2.89838922942255,1.67987207613049,2.81670361673878,26.4434276344212,760.883859823321,7.04153854870233,7.50568092555825,0,10
7.54108361906221,3.1131427113758,1.87345850932661,29.3082108835981,30.7185932288161,4.9318347874127,2.82671794024145,1.02493072009594,2.59221230347066,25.6467875955347,787.941369635039,6.99974986585371,7.40363158905225,0,10
7.53696956404814,3.09131152181132,1.70399370284861,29.2673033948332,30.7134259659562,4.96263241231628,2.74481924355098,1.12272423739284,2.76451334883257,25.1922599425907,854.935823599445,6.95143057403815,7.28223205897433,0,10
7.53622183901452,3.05805033256879,1.50715020949553,29.2484129822839,31.0168041190936,4.99895031558611,2.65514366082397,1.23766903405544,3.22994687692125,24.9823664698214,913.224024316107,6.87734037184313,7.47009867676883,0,10
7.53776707494183,2.99482341644267,1.20518364059268,29.2449788366125,31.6690087044591,5.0238885400525,2.5364926554285,1.44996002023129,3.74312743374799,24.9442092956946,997.391157030587,6.73580466643937,7.67009867676883,0,10
7.54051573101475,2.94333121921513,0.62413930531585,29.2520755013714,32.6271684989019,5.03008799464368,2.37769958511751,1.91235335011265,3.73113330446012,25.0230611263488,1017.6477011047,6.62128567295771,7.87009867676883,0,10
7.54406150084916,2.92513656261845,0.14392583902486,29.2646962979259,33.6929523479694,5.02053637501831,2.20448283140541,2.23377374609265,3.21655056068323,25.1632921991769,962.52259613349,6.58225083314277,8.07009867676883,0,10
7.5480703018309,2.9284090442371,-0.0273016216736437,29.2809720263639,34.7174584415625,5.01056576496876,2.04639237390643,2.23178445307906,2.65504181783598,25.3441336262654,868.869184291122,6.59160613302803,8.15955386076747,0,10
7.55220552137964,2.94026412327472,0.0035555735721573,29.2993662166144,35.5830506978327,5.0145749539779,1.92304521469771,2.04283680033427,2.30879776751914,25.5485135179375,773.024417496872,6.61997370577571,7.70798644846614,0,10
7.55646571076698,2.93578226248112,0.11511897875954,29.3183327671339,36.3377404178349,5.03488966579982,1.83977487040391,1.80792623593817,2.41803418264669,25.7592529681549,705.222904936755,6.61085442268521,7.42653956377903,0,10
7.5578028896503,2.896394229653,0.0729827309646112,29.3378643276754,37.170967257398,5.06345085670512,1.78609134106813,1.7667921394393,2.95021444261062,25.976270307505,692.779886669733,6.5223064018385,7.55417051881524,0,10
7.55745009636344,2.81967536116915,-0.299469038607185,29.3439931414697,38.125073284014,5.08601908801768,1.74536028285667,2.08556037967531,3.57198806977135,26.0443682385522,733.005822949361,6.34906461227896,7.75417051881524,0,10
7.5563424112341,2.77321774328882,-1.0362566568258,29.3423762311459,39.2167765144274,5.09015710430839,1.72445592958678,2.78161693968246,3.53198481485009,26.026402568288,700.148818811435,6.24412544673745,7.95417051881524,0,10
7.55446421126063,2.97287337251618,-1.48995899657905,29.3372991565774,39.4584960504942,5.0763814695394,1.77597776106717,3.21441492616583,3.61501539483788,25.9699906286383,261.699387228461,6.69566810975552,8.15417051881524,0,10
7.55205910168959,2.99959009908166,0.420216955671719,29.3286891466602,39.0345586769487,5.06340288477412,1.84388790513759,1.35576080539545,3.65527588345577,25.8743238517803,281.872030572613,6.75533915036305,8.35417051881524,0,10
7.55052851904734,2.96070208034404,0.668271223884574,29.3176613338065,38.898661050428,5.05721577024099,1.90974490584182,1.17561668125302,3.50769983241952,25.7517925978498,399.369730791678,6.66642494525816,8.55417051881524,0,10
7.55106408335552,2.91198023205222,0.30664263346074,29.3106419902055,39.1021679784803,5.05536998620192,1.9720003763494,1.60310227238108,3.29159300777644,25.6737998911723,485.320061887353,6.55532568437269,8.75417051881524,0,10
7.55298627089562,2.86560058484585,-0.151625215714148,29.3130982420117,39.5086830636771,5.0589937433619,2.03196620063653,2.12362559206355,3.11515352875267,25.7010915779081,532.497342580143,6.44960313499757,8.8298352102235,0,10
7.55572023210924,2.82443912554929,-0.593376791185619,29.3219128663631,40.0064197866308,5.06879811148821,2.09110239256586,2.62534299182215,3.02985165474314,25.799031848479,552.658642636083,6.35574158822158,8.69574798303532,0,10
7.55864892226683,2.79567334265331,-0.990060238996591,29.3344471529168,40.5172851195447,5.08257475641267,2.15146956900861,3.08116263156245,3.10014651522982,25.9383016990758,541.095412124465,6.28994405875797,8.64926156333193,0,10
7.56044774544331,2.76800481229307,-1.26993392588429,29.3478704181754,40.9857332247693,5.09673606331398,2.21209347329005,3.4214034948929,3.28640780245371,26.0874490908375,531.75490455788,6.22664786396274,8.76757975275774,0,10
7.56080482469133,2.72918653599179,-1.54123266234592,29.3561131460233,41.4701711029367,5.10714305279612,2.26788223302907,3.75332613563597,3.41611334965432,26.179034955815,551.433985820004,6.1382163664163,8.96757975275774,0,10
7.56044930363546,2.67841272467054,-1.9254023923433,29.3577492107267,42.0613757700689,5.11127033529448,2.31479318304002,4.19328462537237,3.36876073751534,26.1972134525188,588.760017344136,6.02289059410595,9.16757975275774,0,10
7.56006144407608,2.62328527224733,-2.43430053961288,29.3561202854701,42.7770427940198,5.11096992650459,2.35328281073942,4.7490937226529,3.1431337948012,26.1791142830014,619.833871156688,5.89786229667057,9.2166207529367,0,10
7.56004840309041,2.57497645535102,-2.99532863632538,29.3543431259818,43.5539182300367,5.11165559828004,2.3882735110123,5.3486114470648,2.86934589698478,26.1593680664646,619.679363545233,5.78832223875288,9.00968312398762,0,10
7.56014340862096,2.54165317124197,-3.49449205854421,29.3542833714303,44.2766724695018,5.11825122591898,2.42666857158571,5.88276556955651,2.75483868276575,26.1587041270028,581.666117237806,5.71263064536856,8.73441237212028,0,10
7.55930660552597,2.52128470089786,-3.84304266902791,29.3547186904968,44.7956745250286,5.1317385183512,2.47207051084104,6.26971124061362,2.89322825985187,26.1635410055204,532.192032378707,5.66614384820549,8.63026329397818,0,10
7.55662630870261,2.50220094911287,-4.05783135844518,29.3508842842674,45.1409032908698,5.1476744780195,2.52121995507042,6.52990186928622,3.14254855732929,26.1209364918595,506.076997916305,5.62253056251707,8.81422882682084,0,10
7.55209600980021,2.47515137623771,-4.26029199232551,29.3386004539674,45.4748553995531,5.15841474811111,2.566556624621,6.78151194739593,3.2592531211144,25.9844494885272,511.272005522237,5.56098382596514,9.01422882682084,0,10
7.54733391369853,2.44196814388776,-4.54931613252961,29.3178305833848,45.8562861636968,5.16036217891673,2.60290364872264,7.11587275715061,3.11385589023701,25.7536731487196,530.92004258362,5.48570103068609,9.21422882682084,0,10
7.54313842747776,2.41549778278888,-4.90723122283134,29.2959878866866,46.2974410492599,5.15762658498699,2.63390920479895,7.51013487155399,2.7716041246029,25.5109765187399,542.049687133323,5.42564187095511,9.17843246262044,0,10
7.54011005183262,2.40332449564634,-5.19544668167572,29.2767355063241,46.6958429765564,5.15830301760639,2.66732688107783,7.82935588647467,2.43228472332396,25.2970611813787,515.048165277008,5.39783373900696,8.80378498697144,0,10
7.53789106936819,2.40938028663655,-5.32881266544337,29.2628337893673,46.913734560603,5.16814308796609,2.71080781722765,7.99613954652119,2.3650157073742,25.1425976596364,452.108938570078,5.4110617363947,8.41967625483794,0,10
7.5350648844848,2.42729076733279,-5.26240255184615,29.2526449118411,46.8945272992439,5.1866420141821,2.76609649917174,7.9732103690738,2.62856791148585,25.0293879093451,388.123325177488,5.4509168804005,8.34918427377661,0,10
7.53046157159759,2.44191451526229,-5.06674184484496,29.2396646793144,46.7354986048697,5.20589973836456,2.82637531111527,7.83283834401669,2.98249414758891,24.8851631034938,359.85435627737,5.48329976707518,8.54918427377661,0,10
7.52459311153637,2.44341110356774,-4.9078126966225,29.2185145212025,46.5844178221805,5.21535443074998,2.88100511451501,7.73418800773777,3.14030146734137,24.6501613466945,373.832333398476,5.4861189886849,8.74918427377661,0,10
7.51932017943215,2.43484325819959,-4.89158949140227,29.1915374592526,46.5290678958619,5.21233851558856,2.92457343899184,7.77259460591728,3.00940930555231,24.3504162139181,405.8876729159,5.4663470349794,8.94918427377661,0,10
7.51548969078315,2.42606124046547,-4.98457013005134,29.1672844990119,46.576674239563,5.20412395574687,2.96060822448834,7.90914356904318,2.68410770903444,24.0809388779105,429.226740206974,5.44617221680459,9.14918427377661,0,10
7.51311570189741,2.42528637100599,-5.08013790027212,29.1496580558112,46.6590457976656,5.20077984242022,2.99589363219127,8.04074612476046,2.31182108469909,23.8850895090138,430.041876485072,5.44406730511096,8.83428130319352,0,10
7.51256442541108,2.44161225926397,-5.08858302665772,29.1387304717058,46.6309611095168,5.20800411748502,3.03817069392187,8.08447665884898,2.1399212955053,23.7636719078422,385.879286136776,5.48045879260162,8.39728225388697,0,10
7.5120981125444,2.47866237154602,-4.911090122448,29.1361925477817,46.390544547967,5.22558168229915,3.09292962392544,7.94926081636987,2.35398366890047,23.7354727531302,324.134262655409,5.56345907459297,8.19405650933573,0,10
7.51023115614151,2.52041556091056,-4.51166381246418,29.134045663302,45.9840212866856,5.24691709956238,3.15596101088568,7.60459343638962,2.77349254574267,23.7116184811334,281.012550283977,5.65697517123778,8.39405650933572,0,10
7.50671577050733,2.54393753441877,-4.06702634333777,29.1254492706905,45.559787448459,5.26008710325806,3.21605107051556,7.22298735422345,3.07116425636752,23.6161030076719,288.63630867545,5.70939397869881,8.59405650933573,0,10
7.5038534601102,2.54382268658936,-3.81903669458586,29.1092583245565,45.2624183498762,5.25862591031603,3.26373395607396,7.03508776510142,3.07336971745144,23.4362036061832,334.27905813716,5.70862856640895,8.79405650933573,0,10
7.50255617664129,2.53271182025368,-3.82024321292937,29.096071054758,45.1437307935105,5.2476031324332,3.30044810752969,7.08397716900333,2.85029407847867,23.2896783862,384.073145292237,5.68318291053897,8.99405650933573,0,10
7.5028056360125,2.52413625721375,-3.93716630789027,29.0900929478702,45.1619852908396,5.23848162983609,3.33207662264027,7.23761441541996,2.54142113560403,23.2232549763359,412.311106484922,5.66351200480344,9.13408706168033,0,10
7.50414805535791,2.52596827698553,-4.02768076799191,29.0912425602955,45.2121601587598,5.23877939347625,3.36483722137615,7.35975739063218,2.27741421196009,23.2360284477276,412.236243679164,5.6672976286061,8.77310062254103,0,10
7.50635598435367,2.54748758444174,-4.0083240026305,29.0974284922506,45.1553958878181,5.24976743108812,3.40468007543143,7.37316122400665,2.24924609562282,23.3047610250064,367.268582938078,5.71539552610039,8.4585927796043,0,10
7.50752200755743,2.58534690606669,-3.78176285054349,29.1076009216675,44.908714425532,5.2678267541674,3.45451779583198,7.18644292597492,2.54062261409166,23.4177880185282,309.63717175852,5.80022581638498,8.42668113901173,0,10
7.50700976164403,2.61751594456325,-3.3867312107979,29.1129721458436,44.5442292146979,5.2852218414539,3.50765102512986,6.84124900662988,2.91063132463785,23.4774682871508,286.824443999604,5.87218547653149,8.62668113901172,0,10
7.50582698255315,2.62716254840092,-3.05456681916547,29.1106125895213,44.2179505773886,5.2923460259006,3.55428085951758,6.56221784429533,3.09825397756219,23.4512509946815,316.015814477072,5.89342654242005,8.82668113901172,0,10
7.50569776849039,2.61656503961328,-2.95557407296093,29.1051638957033,44.0388715042803,5.28712721257472,3.58921737039975,6.5098549324785,3.02162556929164,23.3907099522589,372.61248020834,5.86915069009442,9.02668113901172,0,10
7.50681198923224,2.60010025146137,-3.0643401695973,29.1045686077061,44.0551070660188,5.27692237100291,3.61583456508089,6.65355753999705,2.77813127768826,23.3840956411787,419.969216008286,5.83174292648623,9.22668113901172,0,10
7.50886374413648,2.58848750168948,-3.23400053765448,29.1097015588051,44.1973040253415,5.27139754973325,3.63960447060123,6.84983510273537,2.49148941707631,23.4411284311679,440.615541102578,5.80530869396382,9.15888258080875,0,10
7.51145965310297,2.59118035167636,-3.35416265530944,29.1191520071735,44.305288498174,5.27552956666392,3.66638403480562,6.99376712591067,2.31801522046527,23.5461334130384,422.331450491066,5.81108920374911,8.81781343448708,0,10
7.5134695144214,2.61388401075958,-3.32626158199781,29.1311060606051,44.2619773990455,5.28884895370732,3.70128602929941,6.99264561680343,2.4216062170193,23.6789562289453,368.070302531853,5.86188435483746,8.60964438977082,0,10
7.51387465699539,2.6450064161904,-3.09191040541299,29.1403592524841,44.0131157245928,5.30653180231286,3.74339806488604,6.7931964347124,2.74851456741146,23.7817694720459,321.312762877292,5.93157448407595,8.74035300882628,0,10
7.51293137318653,2.66202458444618,-2.77319831984164,29.1422242609216,43.6902894505627,5.31981235181075,3.78460539935423,6.51659638472768,3.02853835693452,23.8024917880176,325.119388519103,5.96947901778189,8.94035300882628,0,10
7.51253485026864,2.65610044518482,-2.6001438210368,29.1378818890897,43.4961029395374,5.32196041976499,3.81679113269934,6.38474922039103,3.06972439981394,23.7542432121074,372.275380826952,5.95576911263348,9.14035300882628,0,10
7.51337601555186,2.63781682015398,-2.66028818557061,29.1360563880719,43.5066700710753,5.31501457445205,3.83949061977557,6.47707931826994,2.8899497192786,23.7339598674661,424.606396238239,5.91431155288183,9.34035300882628,0,10
7.51514367859734,2.62053194438616,-2.84656608286366,29.1399288347778,43.6698099124886,5.30794333473074,3.85747389432225,6.68605670263923,2.61049342039126,23.7769870530864,454.789101546184,5.87516257783071,9.3921953322926,0,10
7.51735714187423,2.6143426920499,-3.02358664650751,29.1480655070282,43.8642650520682,5.30824983906837,3.87649604306762,6.88106054082976,2.38003223873812,23.867394522535,449.521724430234,5.86100856002138,9.05906980701581,0,10
7.51912607071298,2.62896667995305,-3.08719203095171,29.1582521960487,43.9255558973886,5.31816437339506,3.90231279469708,6.96368807401933,2.38872385444768,23.9805799560972,398.154910804771,5.89367844671531,8.77942011357668,0,10
7.51921583516627,2.65843511521844,-2.93709134623731,29.1663914475964,43.7556006234988,5.33476635103898,3.93686735105956,6.83940414093439,2.68014781544406,24.0710160844041,340.405705389387,5.95970024073613,8.79341289212435,0,10
7.51794707950183,2.67996263760206,-2.63657328863451,29.1668044362103,43.4646208174672,5.35028501935591,3.97345527864252,6.57344063969407,3.01355811456477,24.0756048467808,326.024780986298,6.0078035797015,8.99341289212435,0,10
7.51697322332899,2.67844265417661,-2.4186564046999,29.1609667960539,43.2488637979412,5.3560357796166,4.00288452025126,6.39211168334242,3.14547137401343,24.0107421783762,364.425395497641,6.00404981462422,9.19341289212436,0,10
7.51593770433105,2.65910754645421,-2.43399837833971,29.1564855073924,43.2209257632344,5.35086428695394,4.02211722433731,6.43688289859097,3.02747946177573,23.9609500821378,423.008951430885,5.96027066350701,9.39341289212435,0,10
7.51112453667179,2.63700675663368,-2.62974590794619,29.1517199920125,43.3516867073317,5.34251187577684,4.03474205847266,6.65186313228349,2.7624045112475,23.9079999112505,463.591104724069,5.91034010635047,9.59341289212435,0,10
7.50521306455407,2.62137611061808,-2.85484221429391,29.1295630381807,43.5577732544202,5.33972994199229,4.04611922651441,6.88958427276657,2.47222736521809,23.6618115353407,476.303693909929,5.87500431961495,9.34666525415593,0,10
7.50192876685436,2.62495679502768,-3.01492034854544,29.1023355123685,43.7114553417504,5.34660907747912,4.06256627339684,7.06103957505985,2.3542601513011,23.3592834707609,436.763556208419,5.88289042921134,8.99134568574398,0,10
7.50195578016975,2.64991281864685,-2.97818459107634,29.0872014556699,43.6634732659404,5.36215018480794,4.08894666554664,7.04075086447318,2.56107450862737,23.1911272852213,369.95319290852,5.93881709940732,8.84672032178128,0,10
7.50347497368835,2.6769425139838,-2.72321815535156,29.0873259534796,43.437181734536,5.38040717747992,4.12125680429693,6.8121648208982,2.9313675580571,23.1925105942177,330.394977115003,5.99934900201046,9.04672032178128,0,10
7.50376735185223,2.68381212732442,-2.44914664816167,29.0943270041869,43.192738647712,5.39147705402331,4.15004155207913,6.57040345245861,3.17359278999351,23.2703000465215,352.020068050483,6.01450300007792,9.24672032178128,0,10
7.50246840281249,2.66724602174901,-2.37983151943348,29.0956742771069,43.110915010558,5.39018239495203,4.1679773614411,6.52987307151261,3.13487301106289,23.2852697456318,410.803245274028,5.97698631205543,9.44672032178128,0,10
