Pdis,Psuc,T0,Tc,Tdis,Tret,Tsuc,Tsh,Tsup,CondFan,CprPower,Density,Cpr,Tset,Tamb
7.99169255251836,3.42269800635642,4.36834516760712,31.2895958632702,38.4225152016111,12.6942069377466,9.7125196629342,5.37972991555739,6.98159758853353,47.662176258558,773.972441702072,7.60228905091278,22.6143025840373,7,10
7.99284563217018,3.42477475241875,4.3872228171964,31.2909700163852,38.391720570778,12.6940365892431,9.6749653915781,5.3252968457378,6.9846890495333,9.53548892530042,776.674751715773,7.60745975744742,22.6192710361263,7,10
8.00086594150553,3.42668822669039,4.40458367880609,31.2960369963108,38.4028279773871,12.6938308912915,9.63602456163534,5.27038171277201,6.98824285176244,9.54674888069058,778.835407005807,7.61228576518204,22.6253248526716,7,10
8.02896601403502,3.42861996850382,4.42057250800571,31.3312654502569,38.5272282417105,12.6935961274733,9.59626047807387,5.21545205362963,6.99190270719629,9.62503433390427,780.696737039456,7.61716496804671,22.632379165226,7,10
8.07313160528495,3.43072898878805,4.43670704207136,31.4544831823247,38.7338693775009,12.6933299272845,9.55552066663995,5.15955343600251,6.99496520261351,9.89885151627707,785.079598858385,7.62245509691114,22.6397074369458,7,10
8.12568049880291,3.43318413106099,4.45431431270595,31.6474936438302,38.9776664738916,12.6930387633931,9.51322481323507,5.101206353934,6.99766697749135,10.327763652956,791.689106055047,7.62854204433231,22.6458654755249,7,10
8.18258306506682,3.43613583175335,4.47480075901075,31.8761085658153,39.2360665501272,12.6927542808143,9.46884433501276,5.03842405422432,7.00093307072501,10.835796812923,799.548027629222,7.63576998434862,22.6513291411427,7,10
8.24149873324619,3.43954978425333,4.49941578511732,32.1224137448962,39.4967978219665,12.6925023164341,9.42198623395001,4.96942854989544,7.00588153741728,11.3831416553249,808.42446268249,7.64406816123702,22.6579892700862,7,10
8.30049184018958,3.44324154566451,4.52786545872215,32.3760792392855,39.7513498493377,12.6922651386197,9.37249493585063,4.89412077522786,7.01268348658181,11.9468427539678,818.381891469731,7.6530266517498,22.6681461268716,7,10
8.35781557853361,3.44700454007475,4.55860587792989,32.6287156051411,39.9926163761807,12.6919972456386,9.32003406310048,4.81388905792073,7.02087331420847,12.5082569003136,829.420584347174,7.66218844470209,22.6821798138561,7,10
8.41231916967316,3.45057996529599,4.58991346417696,32.8729130163348,40.2180610582031,12.6916268820623,9.26490936147337,4.73012059892352,7.02954908101265,13.0509178140774,841.448796162484,7.67097038119148,22.6991738205704,7,10
8.46305276629397,3.45382255133709,4.61963625403843,33.103931700571,40.4257426095799,12.6911301167415,9.20736875748332,4.64527310743495,7.03809803149005,13.5642926679356,853.908693036688,7.67904386859517,22.7173138027416,7,10
8.50956423019722,3.45662083866907,4.64657173271632,33.3179619818192,40.6159677504784,12.6905319628736,9.14817769359206,4.560797024767,7.0462133469552,14.0399155151538,866.359595320445,7.68614841880134,22.7353628956717,7,10
8.55175348645799,3.45891844775653,4.66980094879619,33.5133345995715,40.7905097983023,12.689879025973,9.08852204461982,4.47837674479587,7.05392226343952,14.4740768879367,878.331987022083,7.69214064590835,22.7526983443767,7,10
8.58974227275626,3.46068602839746,4.68886315487725,33.6898586819156,40.9518011328447,12.6892218812483,9.02998330133312,4.39965888974257,7.06145574659979,14.866352626479,889.479127621643,7.69693189596099,22.769374848818,7,10
8.62378369597714,3.46190141855373,4.7035213588926,33.848248444721,41.102609117416,12.6885934938591,8.974432854388,4.32646194244052,7.06906342922895,15.2183298771579,899.574780696456,7.70044538473764,22.785865345942,7,10
8.65419158051506,3.46254273610493,4.7135970272509,33.9897335403678,41.2457243822935,12.6880027699242,8.92389522106237,4.2608358271371,7.07691859002483,15.5327412008174,908.481246583971,7.70260272598659,22.8026866595035,7,10
8.68115607048145,3.46259138648457,4.71891250206653,34.1157622383093,41.3832582947298,12.687458615304,8.88086468805602,4.20498271899584,7.08508313385113,15.8128049740208,915.944196017116,7.70332619538095,22.820205234939,7,10
8.70530842370363,3.46200354895104,4.71931570346311,34.2272413546895,41.5184533117775,12.6868942096426,8.84628613199112,4.16154898459291,7.09360370884042,16.0605363437545,922.421866013468,7.70250378706571,22.8385631403051,7,10
8.72679067854278,3.46082688869231,4.71444357188898,34.3268735848649,41.6525125804435,12.6863177322468,8.8222364883473,4.13184256010214,7.10262288232371,16.2819412996998,927.38872078707,7.70021232788296,22.8578736439643,7,10
8.74575530819687,3.45902251329688,4.70468923931497,34.4153168623744,41.7861096453567,12.685745051471,8.81071335925839,4.11754724903233,7.11219107783199,16.4784819163876,930.991296619425,7.696336167037,22.8784516870759,7,10
8.76266627146178,3.45657861437262,4.68972630919018,34.493259129461,41.9207248115429,12.6851230924739,8.81135459346541,4.12098705006821,7.1223150938967,16.6516869543577,933.65006147497,7.69085422752008,22.9004272647908,7,10
8.77762750837739,3.45356126264933,4.66945054241671,34.5626540496032,42.0563210551917,12.6844718054378,8.82516812940821,4.1419040510487,7.13275120911362,16.805897888007,935.025890659652,7.68390052617055,22.9238431383359,7,10
8.79083211885341,3.44996893039325,4.64440198040592,34.6239643376491,42.1926294903875,12.6837884557032,8.85210841165946,4.1807661490023,7.14327295462618,16.9421429725536,935.495602959422,7.67547297416093,22.9482204914962,7,10
8.80245048664064,3.44578671166722,4.6145583449906,34.6780108776861,42.329475188611,12.6830762629185,8.89160479170681,4.23755006666886,7.15382258142876,17.0622463948579,935.306038778843,7.66554721912214,22.9731071473272,7,10
8.81262939348159,3.44101507701715,4.57978416921731,34.7255144981975,42.4661752579027,12.6823461369809,8.94264701652617,4.31182062248951,7.16403534871779,17.1678099959945,934.394130868564,7.65413976018754,22.9983954271479,7,10
8.82150034274535,3.43566768027088,4.54006962683849,34.7670939461087,42.6018287016502,12.6816173500919,9.00386006888141,4.40257738968768,7.17338910408944,17.2602087691304,933.265166818285,7.64130188718408,23.0233271521605,7,10
8.82917597132314,3.42978292055783,4.49551282512471,34.8033011510707,42.7366184854226,12.6808957411412,9.07364851785985,4.5083472437567,7.18126332677713,17.3406692246016,931.993522157759,7.62714340851754,23.0467915842557,7,10
8.83575189188686,3.42343832771027,4.44641703650876,34.8346075301296,42.8699022585782,12.6802150696538,9.15031804073061,4.62723148135109,7.18715467225519,17.4102389558436,930.515779528678,7.61186299816943,23.0674395744439,7,10
8.8413039328463,3.41675589301207,4.39341256702278,34.8614123015154,43.0011860249005,12.6796187642412,9.23222111277801,4.75690547370783,7.19074074690349,17.4698051144786,928.93542739368,7.59575792011247,23.0841352588895,7,10
8.84589893940466,3.40987854773975,4.33750423014254,34.8840318681733,43.128980132201,12.6791477881902,9.31778924230605,4.89471688263546,7.19189650121598,17.5200708181628,926.802700995646,7.57917081886129,23.0960995266027,7,10
8.8496009257762,3.4029830089456,4.27987763021514,34.9027443124335,43.2513926416743,12.6788475674732,9.40557680032805,5.03791161209091,7.19076454478278,17.5616540276299,924.138751686382,7.56251775380969,23.1029579819962,7,10
8.85246627642621,3.39623953043869,4.22200910121444,34.9178147611383,43.3666916479518,12.678745650429,9.4943131688122,5.18356769911361,7.18753208493263,17.5951439136406,920.963673932907,7.54619739483321,23.104906597434,7,10
8.85455232697965,3.38981710675755,4.165329717318,34.9294760909441,43.4732932286836,12.6788546576245,9.58287610909736,5.3289834514942,7.18242392366852,17.6210579798759,917.285099306466,7.53060306250291,23.1022489997415,7,10
8.8559245113669,3.38387367301948,4.11126858148697,34.937964061876,43.5696743576168,12.679171244315,9.67025521693785,5.47160752761039,7.17561835585605,17.6399201375023,913.171930421995,7.51610137116238,23.0953853144072,7,10
8.86480099392523,3.37849156834916,4.061169394628,34.9435465500744,43.6989457110783,12.6796757825825,9.75557053861746,5.60908582230985,7.16665959351013,17.652325666832,908.589697896411,7.50288782034427,23.0846327012001,7,10
8.87201778548649,3.37372268475563,4.01574361848719,34.9796432518846,43.8083770403228,12.6803434980992,9.83767881887479,5.73982692013027,7.15443891429737,17.7325405597435,904.976036663159,7.49109333170849,23.0689495601782,7,10
8.87764004665259,3.3698088026657,3.97544715305565,35.0089707226577,43.8986785401047,12.6811712709581,9.91591068061496,5.86223166581914,7.13985254527245,17.7977127170171,900.819387710653,7.48126633218491,23.0458694603104,7,10
8.88189764604642,3.3669392342462,3.94234271103608,35.0318059520501,43.9691330699792,12.6822030066881,9.98967932405446,5.97356796957888,7.12401573862093,17.8484576712224,895.958410767672,7.47383659816038,23.0172593829351,7,10
8.88499457825495,3.36527953847389,3.91805256520934,35.0490912792521,44.0190963789912,12.6834307878723,10.058417871823,6.07162675884513,7.10824941896345,17.8868695094491,890.39901277056,7.46918042573235,22.9855111171867,7,10
8.88713799463384,3.36481772979608,3.90399643095958,35.0616605310756,44.0488176631103,12.6848457249289,10.1218313837001,6.15442144086342,7.09299349180583,17.9148011801681,884.593001467706,7.46727385158617,22.953506393774,7,10
8.8884711488516,3.36551251728128,3.90008438082089,35.0703579033321,44.0587507848772,12.6863710609715,10.1792519348335,6.22174700287917,7.07803395192309,17.9341286740714,878.998969362402,7.46803283452213,22.9222458106818,7,10
8.88913679059236,3.36732619077508,3.90596987299904,35.0757666680436,44.0498944384627,12.6879153772189,10.2300509962769,6.27328206183444,7.06323828299327,17.9461481512079,873.715146597752,7.47138103414576,22.8913146360862,7,10
8.8892615614953,3.37021756145616,3.92132897636486,35.0784670273982,44.0230720278736,12.689430454085,10.2735792648689,6.30872201991207,7.04873562967055,17.9521489497739,868.850525509851,7.47723489677595,22.86046692365,7,10
8.88896686349784,3.37415875991448,3.94580145706379,35.0789731780816,43.9793876087452,12.6908798733148,10.3091832101384,6.32777780780515,7.03512550059992,17.9532737290702,864.296282108858,7.48554094546588,22.8300185044411,7,10
8.88835723388601,3.37907412333098,3.97913374607361,35.0777776857007,43.9196338314784,12.6922783814394,10.3362884073898,6.33004946406476,7.0230857729714,17.9506170793348,860.310282805738,7.49613821825841,22.8012996382299,7,10
8.88753065828447,3.38485351970059,4.02066314607998,35.075304525336,43.8452673285053,12.6936144019724,10.3543734773112,6.31562526130983,7.01314915990406,17.9451211674134,857.058529047839,7.5087883886222,22.7758069838323,7,10
8.88657771023054,3.39134951406958,4.06943348941553,35.0719510496344,43.7579444288477,12.6948408033695,10.3627283223654,6.28493998789565,7.00567136562591,17.9376689991876,854.829359373429,7.52317278153976,22.7547178118027,7,10
8.8855828676719,3.39839220315699,4.12417483717758,35.0680845811759,43.6597927129354,12.6959099173962,10.3607788299207,6.23855348518782,7.00079982769302,17.9290768470575,853.786002222537,7.53892095162305,22.7388199416188,7,10
8.88462461436607,3.40578988672854,4.1834324379289,35.0640477986402,43.5532125141415,12.6967749554016,10.3479505250148,6.17734639199176,6.9984871749665,17.9201062192004,854.076284434392,7.55561400319783,22.7284463439046,7,10
8.88376870732098,3.41336618131761,4.24557572860363,35.0601591636445,43.4405887341579,12.6974186839153,10.3239387124867,6.10237479641114,6.9985971070339,17.9114648080988,855.766551770247,7.57286358240544,22.7235075710324,7,10
8.88307688668317,3.42093377781113,4.30911230183852,35.0566855879779,43.3245365954914,12.697815196696,10.288410296218,6.0148264106482,7.00092097826405,17.903745751062,858.886593477803,7.59025735282493,22.7237230786499,7,10
8.88259706750888,3.42833953103695,4.37246814983627,35.0538777496666,43.2077886786773,12.6979696579054,10.2413627118737,5.91594214638178,7.00525569136175,17.8975061103703,863.531246138903,7.60745454207483,22.7286600128999,7,10
8.88236786963311,3.43543304414497,4.43436516962652,35.0519302486349,43.0932238923908,12.6978921079125,10.183044892381,5.80699754224719,7.01134072859912,17.8931783302998,869.469270714583,7.62411680154216,22.7378997179022,7,10
8.8824274473574,3.44205961395179,4.49355651994654,35.0509999471669,42.9830317648665,12.6976015616938,10.1136325524995,5.68948837243443,7.01883028358361,17.8911109937043,876.453551112221,7.63989692902176,22.7509064937442,7,10
8.88280001487901,3.44810265110678,4.54876696262795,35.0512417715805,42.8795882702275,12.6971417054032,10.0339162843953,5.56486558987154,7.026959075771,17.8916483812901,884.250183011755,7.65452383507512,22.7669682868805,7,10
8.88344309436906,3.45352087109766,4.59904465900684,35.0527539857034,42.7829672497217,12.6965167613424,9.94691424626427,5.43487162538844,7.03551287794647,17.8950088571187,892.707184552184,7.66786270260346,22.7844858793319,7,10
8.88438004904454,3.4581870845559,4.64406655603148,35.0553640686209,42.6967498128297,12.6957700705944,9.85327534601845,5.3028476902328,7.04446696591805,17.9008090413798,901.816478955903,7.67961988263876,22.8030243690218,7,10
8.88562447406296,3.46197013294048,4.68279642327241,35.0591666561078,42.6247535421144,12.6950205633498,9.75464485536628,5.17047892274604,7.05330097137869,17.9092592357951,910.719539088587,7.68947828250164,22.8225497122275,7,10
8.88712293924229,3.46483168719242,4.71416659333721,35.0642166321094,42.5679167418742,12.6942872234563,9.65446481396737,5.04047826202907,7.06151964762518,17.9204814046875,919.42355579827,7.69730228388608,22.8419777151388,7,10
8.8888048720486,3.46688590546303,4.7378780206576,35.0702968183434,42.524843796604,12.6935154023715,9.55539390715199,4.91658679330976,7.06925306799775,17.933992929652,928.107936746893,7.70330809190642,22.8602676789614,7,10
8.89063886632914,3.46817257021665,4.75489044896534,35.0771205272462,42.4955893391626,12.6926867620999,9.45882817922183,4.80050345818665,7.07675145350009,17.9491567272138,936.666895622965,7.70756365078969,22.8776932202971,7,10
8.89260797940799,3.46870979882026,4.76554229391786,35.0845600539058,42.4832761080698,12.6919048436507,9.36807775132093,4.69328588530396,7.08416059957381,17.9656890086795,943.688200585017,7.71006116293462,22.8947834158402,7,10
8.89466156315741,3.46846948502557,4.76998892487018,35.0925464014562,42.4885555688826,12.691247976805,9.28726845967878,4.59808882645075,7.09151817089707,17.9834364476804,948.976866889546,7.71067779607227,22.9118500224954,7,10
8.89675720346251,3.4674698294256,4.76799991736175,35.1008739309058,42.5085717226323,12.6906350654998,9.21659023033493,4.51926854231704,7.09896401652605,18.0019420686795,953.634122183518,7.70945066494698,22.9289778761138,7,10
8.89885153612696,3.4657944604442,4.75972492526415,35.1093705159073,42.5441313652529,12.6900778523045,9.15914755168257,4.45686530507078,7.10673197269892,18.0208233686829,956.666397644811,7.7065219350063,22.9464698003462,7,10
8.90090131070075,3.46345845208668,4.74585238565965,35.1178602972864,42.5939258701486,12.6895660193618,9.11665604827022,4.41329516602292,7.11513458079122,18.0396895495254,958.305177697125,7.70190054593607,22.9648328538411,7,10
8.90286773399413,3.46048394679194,4.72650098467244,35.126168000584,42.656459368422,12.6890824721293,9.09010804594601,4.39015506359777,7.12432920852086,18.0581511124088,958.739095319966,7.69562192607288,22.9847499039529,7,10
8.9047211631089,3.45689416788853,4.70184582563974,35.1341365318903,42.7301491012246,12.6885972214094,9.07963125129635,4.38826222030627,7.13421364396368,18.0758589597562,958.17619164673,7.68773660274373,23.006584294242,7,10
8.90642778223427,3.45274052023018,4.67206914416607,35.1416459669354,42.813170048619,12.6880976659159,9.0852027585795,4.40756210713027,7.14405398925726,18.0925465931898,956.766532672477,7.67836063743432,23.0301518619798,7,10
8.90792777654655,3.44794958042616,4.63758568271226,35.1485595419172,42.9046425594096,12.6876022317639,9.10796129404594,4.44761707586724,7.15327693284542,18.1079100931493,954.661353858227,7.66731449412879,23.0539123607078,7,10
8.90915746190307,3.44251925418955,4.59777195394628,35.1546352507362,43.001555882706,12.6871579379493,9.14725854076221,4.51018934009966,7.16113259816478,18.1214116683026,951.879086332218,7.65460405998301,23.076641879783,7,10
8.91018709266326,3.43666296235565,4.55259351602155,35.1596155031542,43.1019211904176,12.6867054258146,9.1968920162318,4.59466502474066,7.16780141222239,18.1324788958983,949.13911981842,7.64079632515709,23.0967103039981,7,10
8.91112961179743,3.43056202621134,4.50380996408524,35.1637851329314,43.2041618774872,12.6861462649385,9.25130113860916,4.69308205214656,7.17401699240924,18.1417447398475,946.583609008588,7.62637668577033,23.1144599272024,7,10
8.91184664967822,3.42409095157627,4.4529207188549,35.1676016750365,43.3078218109486,12.6856417071674,9.31378963693049,4.79838041975427,7.17858932522205,18.1502259445254,943.930082046857,7.61101847041235,23.1314347002549,7,10
8.91233100511833,3.41731841416076,4.39886823681229,35.1705049729598,43.4122989249037,12.6852657135672,9.38227739022017,4.9149214001182,7.18021285564777,18.1566777176885,941.385218776411,7.5949056330619,23.1450377525603,7,10
8.91257718022679,3.41042064067254,4.34221376983788,35.1724660366355,43.5156363221939,12.6850242847563,9.45481983927334,5.04006362038228,7.17838789732696,18.1610356369677,938.482558681333,7.57846043377978,23.1523656569671,7,10
8.91257888213364,3.40363679933718,4.28442316282786,35.1734627224579,43.6154396764824,12.6849568993289,9.52977851558512,5.17039667644548,7.1734564856099,18.163250494351,934.999784322494,7.56224108800336,23.1522123052145,7,10
8.91233170370232,3.3972154781981,4.22749967464006,35.1734696128731,43.7091093823464,12.6851257612665,9.60580144577057,5.30227884094506,7.16626483801002,18.1632658063847,930.804132750773,7.54682229486836,23.145192372653,7,10
8.91179488585209,3.39150095594256,4.17353795735403,35.1724688650121,43.7924198784602,12.6855667643567,9.68157971919493,5.43226348841654,7.15803284152679,18.1610419222492,926.044635452138,7.532991482364,23.1330467422766,7,10
8.91099263562543,3.38665505874249,4.12545006970419,35.1702953862712,43.863210991808,12.6862159874409,9.75573357292376,5.55612964949074,7.14980266198592,18.1562119694916,921.024164928426,7.52112868016107,23.1183772045499,7,10
8.9100404142281,3.38230240851737,4.0846230113296,35.1670470363468,43.9266291795931,12.6870784155249,9.82867362147414,5.67111056159416,7.14041950481072,18.1489934141041,915.464427288944,7.51038838860211,23.1034467866443,7,10
8.90887284751718,3.37870012466,4.04791341163536,35.1631911607712,43.9774419528622,12.6880923705523,9.8983681666104,5.78076020983877,7.1287021704548,18.1404248017138,910.516602266036,7.50137261779133,23.0857405898205,7,10
8.90752092021136,3.37610081190861,4.01750489781648,35.1584628546349,44.0147614525332,12.6891410092613,9.96382402300009,5.88086326879392,7.11570178255465,18.1299174547443,905.359119747706,7.49465847345226,23.0626544391163,7,10
8.90601731311288,3.37458739285538,3.99554748111512,35.1529873600338,44.0375037245161,12.6902520424799,10.0244031729536,5.96827654188496,7.10248727257823,18.1177496889639,900.020329248637,7.49043891292242,23.0364562440529,7,10
8.90439597086448,3.37412765533047,3.98275706647769,35.1468968077553,44.0458155014836,12.6914617645795,10.0797639540995,6.04164610647592,7.08938708717989,18.1042151283451,894.642740926838,7.48864570751037,23.0094875164633,7,10
8.90267587080426,3.3744684938051,3.97887079904393,35.1403284886499,44.0431545663956,12.6928897591452,10.1314973585909,6.10089315505559,7.07577583927883,18.0896188636665,888.744385127685,7.48869080450696,22.9824925656968,7,10
8.90087857498247,3.37578499249915,3.98175202426182,35.1333591034635,44.0258384646268,12.6943917438052,10.1770039591428,6.14974533432911,7.06159899830465,18.0741313410301,883.605595654224,7.49100059464641,22.9541337708721,7,10
