Pdis,Psuc,T0,Tc,Tdis,Tret,Tsuc,Tsh,Tsup,CondFan,CprPower,Density,Cpr,Tset,Tamb
9.37731186136829,2.77512247770296,-1.47122853923486,37.0192475852388,58.6313612455486,17.8931003915731,11.5481666253111,13.0194033565068,7.00379584397535,100,3943.47311473547,6.13580679960992,84.1585459490567,7,30
9.37405092735264,2.71846171521077,-1.47124281509372,37.0192475227207,58.728853678925,17.7444287456811,11.4420244188659,13.0194094404048,6.39612816197814,100,4391.09701960141,6.01107705712673,84.1585849051517,7,30
9.3585165730142,2.53273956822974,-2.03228387658061,37.0065379723236,59.0641304199118,17.3312054518278,10.4908374070683,13.4743082954465,3.49545259174715,100,5081.12771839995,5.60827198413311,82.910431053533,7,30
9.34047432569475,2.37482215654525,-3.93687381439548,36.9459469270003,57.2380303752782,17.0706753991911,8.49340903812976,14.4277112214638,0.444773143629561,100,5997.60613383875,5.27636944999445,76.3118478424837,7,30
9.30683109763129,2.2527605222523,-5.64312961309741,36.8754790998847,54.7822216318516,16.9557663542434,6.3135408259102,14.1365386512272,-1.9227629477831,100,6771.15042111466,5.02414756474228,67.7925902662662,7,30
9.24606731495834,2.19001940468991,-7.02317386324438,36.7438048980139,53.1196530816154,16.9143884400487,4.3192742576046,13.3367146891546,-3.68230354217479,100,6854.32237100219,4.901659256169,59.6321092720632,7,30
9.18302706302819,2.16971340255198,-7.75519754220051,36.5050767190665,52.5082665275381,16.9054422424145,2.59747316035771,12.0744717998051,-4.86544041794519,100,6396.43009211783,4.87154085904806,52.1717913382815,7,30
9.11808035466966,2.17801781261493,-7.99559608367338,36.2561563869741,52.6313063278698,16.9101808791903,1.16428598041955,10.5930692440311,-5.55345427227689,100,5638.34458534939,4.90331415784941,45.7882038970266,7,30
9.04738552061488,2.20330674086161,-7.89707194256505,35.998362557403,53.2122789768283,16.920489289306,0.00940196312546959,9.0613579229846,-5.85093700941968,99.9818061933663,4782.43288994349,4.97118780423035,40.6310431060505,7,30
8.96981370134614,2.23879025730373,-7.59882533296565,35.7161803146081,54.1079997927465,16.9330687497552,-0.892058987983205,7.60822729609112,-5.86238111635953,96.8464479400899,3976.31006389808,5.06012376029179,36.6687302216104,7,30
8.88909166614079,2.27704798210818,-7.18478984945489,35.404636193073,55.2333845020072,16.94657240763,-1.56697253899245,6.29273086147168,-5.67759314396193,93.3848465896997,3230.23844992961,5.15350003321016,33.7606259125901,7,30
8.80851285673105,2.31222014738059,-6.74404149044727,35.0782839724116,56.3093383721806,16.960474535189,-2.00446848015355,5.17706895145483,-5.38644085652408,89.7587108045735,2605.68505886248,5.23777184002381,31.7240070874107,7,30
8.73073912716628,2.34138864221547,-6.34387184472399,34.7502828018154,57.3381667397121,16.9745641772421,-2.16025553481649,4.33940336457044,-5.05626960528474,86.1142533535049,2066.46208735884,5.30571262127615,30.2938048520037,7,30
8.6575961133453,2.38009392587115,-6.01556783320001,34.4315549773501,57.6640723648662,16.9889580897369,-1.81673993408646,3.85531229838352,-4.03648839903383,82.5728330816673,1617.66076766468,5.39037172698987,29.2283302563361,7,30
8.59062344518598,2.4293930125126,-5.58477469369564,34.129851960691,57.2267867322602,17.0044662019013,-1.1040247658425,3.76803475960918,-1.00516167103626,79.2205773410109,1338.98596724438,5.49522566616254,30.2283302563361,7,30
8.53269134768403,2.42076525123253,-5.04384941628405,33.8519161366449,56.8875829221706,17.0214635643468,-0.287904199125535,3.93982465044155,2.3236053466681,76.1324015182765,1469.78017341737,5.46725246126435,31.2283302563361,7,30
8.48453739116315,2.34828918683032,-5.13789932411913,33.6101820257118,57.5331143153447,17.0393522009713,0.491424542589016,4.8499951249936,4.43869109778399,73.4464669523529,1683.66077314407,5.29507666180433,32.2283302563361,7,30
8.44538632788292,2.24090232179708,-5.93836260949018,33.4083087433452,59.0377001235648,17.0573000684919,1.19559234335708,6.4297871520792,5.51969064579413,71.203430481613,1817.85775024408,5.04522153587383,33.2283302563361,7,30
8.41409653526776,2.11342320210398,-7.16030624140319,33.2435421368169,61.162600791803,17.0750863095373,1.8213134923393,8.35589858476027,5.95576156809005,69.372690409077,1884.42537802156,4.75147362614535,34.2283302563361,7,30
8.38881812575471,1.99004075879754,-8.67125211477889,33.1114462669576,63.5375520179662,17.0926175228974,2.38017645551906,10.4925656071182,5.98416075447767,67.9049585217513,1937.19099692927,4.46835262195359,35.2283302563361,7,30
8.36850378560631,1.88306576696965,-10.2025731761251,33.0044586760499,65.8960508126164,17.1097935960943,2.8901653148277,12.5827496316442,5.67496102589854,66.7162075116658,1877.81652950381,4.22327419072359,36.2283302563361,7,30
8.3479733136352,1.79170292338862,-11.5911910786554,32.9183050875671,68.122292906915,17.1265055951966,3.36437005462687,14.4813563934831,5.07259430527398,65.7589454174128,1842.49717330124,4.01412819857614,37.2283302563361,7,30
8.32620643081027,1.73342784479319,-12.8266426253537,32.831074990716,69.7812583155083,17.1426438174635,3.81870809517523,16.1910126799806,4.18657748978666,64.7897221190666,1746.17670922642,3.87987107238691,38.2283302563361,7,30
8.30417959097158,1.70752976991488,-13.6405506891919,32.7384152965727,70.7008194033769,17.158064178499,4.2633344655091,17.4592587843671,2.98505554164217,63.7601699619192,1639.54358665156,3.81857948901802,39.2283302563361,7,30
8.28489302853273,1.71177144313692,-14.0091252560903,32.6444634086492,70.8737470512655,17.1726269174396,4.70050720752033,18.2724597215994,1.42353846487458,62.7162600961027,1545.48386589812,3.82501446086705,40.2283302563361,7,30
8.26956691422649,1.74431144343777,-13.9484615067313,32.5620457512631,70.2897064477506,17.1861591264604,5.12843004833553,18.6489687142516,-0.443779289937254,61.8005083473678,1471.65903893777,3.8949010074066,41.2283302563361,7,30
8.25740861014442,1.79727849507944,-13.4869394977293,32.4964494329959,69.1026915208497,17.1986130768749,5.53244472508453,18.6153695460648,-2.43810763414319,61.0716603666213,1429.16737906581,4.01059759027087,41.7664549749417,7,30
8.24844066752081,1.87353434048475,-12.7498576346371,32.4443464051883,67.3306857699395,17.2100112559714,5.880884847392,18.2823023597217,-4.3153131807224,60.4927378354255,1415.45861987981,4.17869246319115,29.5874378160428,7,30
8.21939256744171,2.00677593242069,-11.717869718115,32.4058783308589,64.5673275769921,17.2206677217141,6.15904484190361,17.598754565507,-5.34961723569677,60.0653147873212,969.937542182812,4.47472084777675,17.4868000460299,7,30
8.1620987323449,2.1868955529562,-9.99062083711954,32.2810599304214,61.2160246945157,17.2313491804077,6.44775325803835,16.1496656790231,-4.69617104086882,58.678443671349,454.050442944955,4.87543518142326,20,7,30
8.10999928913668,2.35548117951127,-7.79206738010316,32.0338952598032,57.9638630925261,17.2427508038588,6.78971494811026,14.2398206381415,-2.88953017313111,0,329.823326184874,5.24965178276049,0,7,30
8.0550190299229,2.46276631343799,-5.85808319420988,31.8080038649643,54.6975679014254,17.2384156392067,7.03312451509402,12.6477981423201,-1.56545923725423,0,123.71450302281,5.48741103022678,0,7,30
8.03438861566836,2.59661489987445,-4.6824654425518,31.5684351929286,48.9737179578808,17.2378068579145,7.15756448820912,11.7155899576458,-0.302902918325117,0,52.2295834007724,5.78578438089823,0,7,30
8.0162390056082,2.78198728118483,-3.27002139506754,31.4782237296139,39.9424165957099,17.2476764224782,7.22938115563397,10.4275858832767,1.66878993633344,0,57.1520236739982,6.20018514291486,0,7,30
7.95943523933313,3.0041040627572,-1.4038703135497,31.3987159976853,31.1486046395132,17.2633565953493,7.2706393134082,8.63325146918368,4.40536192189165,0,69.4840978806859,6.69751825467502,0,7,30
7.91571578991403,3.24404646185754,0.71001368854354,31.1489982334845,30.9458338870149,17.2817143115212,7.29777445309298,6.56062562486466,7.58225709131705,0,151.607133476091,7.23537937096753,0,7,30
7.87962898852312,3.46342151047939,2.86257540642919,30.9558864499602,30.7778040233405,17.3012353767951,7.31696255280679,4.4351990466638,10.6398781923726,0,0,7.72759441643542,0,7,30
7.84950628442608,3.64476671813108,4.72619488157039,30.7958831406117,30.637544602504,17.3212364448873,7.33257259804861,2.59076767123639,13.0758168602593,0,0,8.1347652928981,0,7,30
7.82401609984814,3.76507816487771,6.19962856939117,30.6619009846831,30.5188554398578,17.3414042126475,7.34848874297222,1.13294402865745,14.7597116154284,0,0,8.40495123251581,0,7,30
7.80217536789483,3.83495148682861,7.14648460470312,30.5482211771483,30.4171591112497,17.3615960698471,7.36462236007611,0.202004138269103,15.8169879345247,0,0.656262255616795,8.56180581450411,0,7,30
7.78312123028475,3.87748032360283,7.68581844685986,30.4505951011996,30.3284379161964,17.3817467594633,7.3808425614389,-0.321196086783743,16.4404389479132,0,1.11677537739315,8.65718840138278,0,7,30
7.76631396568038,3.90069847828216,8.01042188566248,30.3652567373061,30.2501787668298,17.4018280555754,7.39707078294572,-0.629579324223585,16.7889044566261,0,1.24686163217279,8.70914558078629,0,7,30
7.7512904296371,3.91209594522329,8.1864894871855,30.2898509107407,30.180225137914,17.4218269453851,7.41325890732855,-0.789418704239779,16.9814662674555,0,1.27173336031946,8.73451706694574,0,7,30
7.73767036110592,3.91702905872472,8.27262588934877,30.2223437642199,30.1168064316192,17.4417388719262,7.42938509708847,-0.859366982020219,17.0884658559301,0,1.26252481186502,8.74534947485347,0,7,30
7.72449193113533,3.91873351449279,8.30984850376529,30.1610578399875,30.0554441133739,17.4615627311555,7.44544101489544,-0.880463406676824,17.1510781581091,35.1228648887501,1.2422166898606,8.74892089763389,20,7,30
7.90272363373642,3.64197244227576,8.32270108753653,30.1016818150802,44.3876862470644,17.4823213382695,7.77196776651101,-0.877260072641093,17.1938471090999,34.4631312786684,76.7350071345404,8.12183894112216,20,7,30
7.97327618715312,3.1670885835045,6.17735526094879,30.898344579847,42.0135998198444,17.5035424980051,8.10949666882846,1.59461250556222,17.2183094050825,43.3149397760783,960.538759600342,7.05208767933075,20,7,30
8.03043539895624,2.69635689803423,2.18589600318529,31.2099683151155,45.6076423351085,17.5242079305647,8.28911860134849,5.92360066564316,17.2123752957109,46.7774257235053,2082.22335189295,5.99662301100951,20,7,30
8.04519644375341,2.24780140759592,-2.25360567334286,31.4609174481532,51.5259622079354,17.5442048067371,8.29876166056602,10.5427242746914,16.3410820422627,49.5657494239241,2375.09202088244,4.99475242525153,20,7,30
8.02344533739865,1.876228395993,-7.08045460363314,31.525505266388,58.3259399774984,17.5631046653213,8.18606928867854,15.3792162641992,10.9033340506211,50.2833918487555,2232.48537447151,4.16704766680945,20,7,30
7.98115432808351,1.72036872743436,-11.6820132626924,31.4303008624171,63.9623361062722,17.5806514717748,8.07201769349155,19.8680825513709,1.08625039684091,49.2255651379682,1586.58748678921,3.82056638091148,20,7,30
7.9337574708781,1.78628029851922,-13.8258634540585,31.244636378557,65.6900897995059,17.6006635767036,7.99872253431107,21.89788114755,-5.31480145031992,47.1626264284112,804.383487454507,3.96796608534754,20,7,30
7.90433791292209,1.96246330745072,-12.9015001464239,31.0356747841793,63.784595117434,17.6243318893858,8.00527981366798,20.900222680735,-7.0043905128054,44.8408309353258,338.759217677184,4.36072461446874,20,7,30
7.89678517841777,2.17597208618132,-10.5548863545403,30.9054980444275,59.8167900618979,17.6454793923959,8.05085254089465,18.5601661682082,-6.83004899510132,43.3944227158615,134.113838177231,4.83669332819648,20,7,30
7.89038252891872,2.39333374733402,-7.92131551738998,30.8720196361165,55.511779151642,17.6613749610443,7.9870581338115,15.9721680582846,-5.91256578580521,43.0224404012948,56.8474685572621,5.3226393564044,20,7,30
7.87878285947949,2.59481741085151,-5.43865843798602,30.8436202456771,51.1786026550822,17.6738352236898,7.70932031210657,13.4257165717975,-4.48505559759502,42.7068916186348,144.201826465215,5.77587389205489,20,7,30
7.86768672851377,2.76305705822778,-3.28861290053982,30.7921249257479,47.3403927961896,17.6848661614874,7.19643808472506,10.9979332126464,-2.745619972881,42.1347213971993,282.812108280211,6.15815002288103,20,7,30
7.86321040296651,2.87786234770573,-1.58996694618213,30.742811593058,44.110976778099,17.6955950886461,6.57954686484152,8.78640503090719,-1.18288311867127,41.5867954784226,540.03160560284,6.42275108878706,20,7,30
7.86763386360103,2.95913886830748,-0.476055389520411,30.7229031304428,41.9769763849795,17.7064545113404,5.97727218340998,7.05560225436193,0.00732447157145089,41.365590338253,798.623540959992,6.6125504827151,20,7,30
7.87938356075545,3.00458990271482,0.292029782818702,30.7425765260401,40.5392516800804,17.7175546558956,5.4603938869576,5.68524240059128,0.858724462625219,41.5841836226681,1060.23447581645,6.7211533598387,20,7,30
7.89555362244313,3.02630100692736,0.714503574053538,30.7947930659511,40.1527935064195,17.7288754215981,5.0448365237724,4.74589031290407,1.4305963552726,42.1643673994569,1226.85638747785,6.77523896876875,20,7,30
7.9135024010014,3.0348859234953,0.914579201587401,30.8665583312681,40.5870550591952,17.7403658229167,4.73263065469695,4.130257322185,1.81875455887547,42.9617592363122,1273.21033670743,6.79852225340787,20,7,30
7.93103174633136,3.03790438117024,0.993387964477961,30.9460884408987,41.6449558005754,17.7519940439284,4.53518647104534,3.73924269021899,2.11471585829372,43.845427121097,1213.54615030409,6.80782739980565,20,7,30
7.94629305690084,3.05767909449692,1.02105642236182,31.0236291780486,42.7111441708045,17.7638061226265,4.57771870971993,3.51413004868351,2.57860833446938,44.7069908672063,960.95361184836,6.85186091479984,20,7,30
7.96021477973442,3.22212961584254,1.20179909186862,31.0910323825833,42.364677866491,17.7766532621217,4.93926011626388,3.37591961785131,5.46339129243228,45.4559153620367,358.808689013953,7.21780114659958,20,7,30
7.97720569227534,3.29831962037803,2.67112967445479,31.1524342674379,41.1233123928853,17.7914131074016,5.41391584022034,2.26813044180909,9.39514564718672,46.1381585270873,492.391547423119,7.383019032422,20,7,30
7.9935798388835,3.22837521585302,3.3324213590152,31.2272634736316,41.1033917457946,17.8077805762484,5.86610692983544,2.08149448120514,12.3668543668135,46.9695941514626,926.899701889232,7.21940084223327,20,7,30
8.00472182059451,3.04024272118511,2.72578712623368,31.2992630356252,42.5806567620177,17.8226120808786,6.22961897588306,3.14031980360176,14.5679832739985,47.7695892847249,1362.71158264342,6.79165621234555,20,7,30
8.0095714715981,2.75094122797924,1.04247611419959,31.3481925813137,45.1861331186905,17.8332180634505,6.45154071942773,5.18714286168347,15.9009235509794,48.3132509034855,1763.21540907612,6.13946333078463,20,7,30
8.00299710012862,2.44672068992767,-1.70958975119993,31.3694736189327,49.0871080725042,17.8419531652482,6.53237208870263,8.16113047062765,15.7885442496107,48.5497068770295,1889.13557728064,5.45653448514832,20,7,30
7.98538347610023,2.15656953286689,-4.85574041577115,31.3406218965003,53.491187806984,17.8517004236313,6.50072073217501,11.3881125044738,13.3362461138894,48.2291321833366,1917.49397940827,4.80707975388284,20,7,30
7.95794149906812,1.94208177561759,-8.15213532647556,31.2632362899275,58.1673987726933,17.8635393596451,6.44113257828957,14.6528560586506,7.83352545237369,47.3692921103053,1707.98425554971,4.3276837404842,20,7,30
7.92757280046216,1.84943013532476,-10.8177508011469,31.1424134641759,61.5530586194396,17.8784461402862,6.45340481482287,17.2588833794364,1.68919674604791,46.0268162686216,1299.41532809266,4.12040060830232,20,7,30
7.89568703721886,1.91399150671342,-12.0404836203539,31.008338812861,62.6848160086632,17.8998820797099,6.60801805873911,18.4938884351768,-1.41038938128304,44.5370979206776,744.506177952068,4.26355142512572,20,7,30
7.87361620351099,2.04544944136525,-11.1835756895957,30.8671499867816,61.1187008559111,17.9221726796608,6.88627023283141,17.7915937483348,-1.76846490447633,0,417.151863155138,4.55519098019545,0,7,30
7.84795162366362,2.13353992303124,-9.50602147709344,30.7691698218701,57.7890500608008,17.9243301989028,7.09691890949404,16.3922917099248,-2.09429899842132,0,150.325563174959,4.75032045282636,0,7,30
7.84732345364402,2.25374973758436,-8.42820383576839,30.6549755495488,50.2392258865396,17.9256072429613,7.2096449638222,15.5251227452624,-1.36841140465015,0,59.315242577743,5.018069022856,0,7,30
7.85897367671265,2.42799734264991,-7.0117595230318,30.6521769930623,39.4283313316375,17.9346606201743,7.27658383364906,14.221404486854,0.758302314619755,0,76.8024696151178,5.40715544354569,0,7,30
7.80633497941829,2.6295198540045,-5.059045873336,30.7040524292962,30.4365273824815,17.9483919205792,7.31516189259412,12.3356297069851,3.8951142549069,0,191.456970260327,5.8577630634243,0,7,30
7.75405185676813,2.82757434214911,-2.93142622257517,30.4692040239007,30.1930830861524,17.9643866758476,7.34013966226212,10.2465881151693,7.44387582808315,0,0,6.30103715746851,0,7,30
7.70375513511808,3.00080651419293,-0.959689326571379,30.2347594142924,29.9588880077197,17.9814176298245,7.35757680701101,8.2998289888335,10.7751063126697,0,0,6.68904731358845,0,7,30
7.65698004823554,3.13545484084314,0.679524661846074,30.0080966632538,29.7410906089675,17.998911706813,7.37396608540251,6.67805214516494,13.402393082614,0,0,6.99075693634084,0,7,30
7.61399929639855,3.22103241970068,1.9040811656962,29.7963024245385,29.5409606558148,18.0165947964354,7.39062400004451,5.46988491970632,15.2130128823528,0,0,7.18249925017826,0,7,30
7.57479652668266,3.26749691027475,2.66151932954944,29.6008283323355,29.3584220046424,18.0343368226436,7.40741698805476,4.72910467049508,16.3343921547751,0,0.588335135647156,7.28652206920214,0,7,30
7.53876175770131,3.29165939434067,3.06632149452918,29.4218106028687,29.1906344178767,18.0520762515852,7.4242372503607,4.34109549352559,17.010002810749,0,0.919228264246151,7.34051040357498,0,7,30
7.5057346284945,3.30444991951334,3.27508406752537,29.256643111116,29.0368512117105,18.0697845741915,7.44102563230433,4.14915318283533,17.3881335270414,0,0.996580682891455,7.368982087878,0,7,30
7.47538041230971,3.31097568676739,3.38511813357951,29.1047384221923,28.8955138082587,18.0874471071987,7.45774969587319,4.05590749872482,17.596118630035,0,0.985951819035662,7.38339640157818,0,7,30
7.44740392783347,3.31383762628683,3.44113208201696,28.9646830114735,28.7652477638479,18.1050574473738,7.47439669591353,4.01661761385623,17.7103727989293,0,0.947467701160697,7.38958997528907,0,7,30
7.43956648262968,3.31475799628259,3.46567084795987,28.8352187865169,28.7287545087411,18.1226127550668,7.49096350851005,4.00872584795366,17.7755079316147,20.3913198501874,0.944394384439796,7.39142778795292,20,7,30
7.70584701099363,2.85363213039426,3.47355880654032,28.798884495887,49.6066121199726,18.1410115121331,7.73069662124857,4.01740470196972,16.36895169204,19.9876055098552,76.7350108979322,6.3548263023969,20,7,30
7.7429202889179,2.36656651509222,-0.708265053451953,30.0175458905456,49.7925516347244,18.159098494224,7.89215197521821,8.43896167470052,9.88783953190256,33.5282876727294,1329.7888777111,5.26376484785871,20,7,30
7.79842494865924,2.18032230711675,-5.73471564665766,30.1846904338802,53.4942012654213,18.1763712379918,7.99979608611631,13.6268676218759,3.58030814865998,35.3854492653353,1398.53423565679,4.8468572024219,20,7,30
7.81923911712594,2.16233647511137,-7.86978288749521,30.4338103874577,55.9649377083567,18.197679077623,8.13094764112645,15.8695789736115,-0.0540355725069617,38.15344874953,944.56588739611,4.80555411546819,20,7,30
7.82106091525882,2.2301008829602,-8.08336206162795,30.5268860388838,56.0747940031385,18.2219160400629,8.35297354734047,16.2143097027544,-0.589805640124325,39.1876226542649,626.649214045339,4.95476265657376,20,7,30
7.81509628924427,2.30877945306253,-7.28570804324414,30.5350237782918,54.9898544678537,18.2425871254897,8.60872062046678,15.6386815905846,-0.695375761436594,39.2780419810195,502.771731148961,5.12791460284908,20,7,30
