Pdis,Psuc,T0,Tc,Tdis,Tret,Tsuc,Tsh,Tsup,CondFan,CprPower,Density,Cpr,Tset,Tamb
8.40444266324327,3.86499666229411,7.91546003781224,33.0705903685628,38.5399108570007,19.8661971809307,14.568337341073,6.65288564721897,12.0151892558417,67.4510040951424,992.415499364,8.51497083008778,33.2316908157724,12,20
8.36636777860538,3.96615588580073,7.91542288043877,33.070616060049,37.6321790384652,19.8663043885883,14.5871719344591,6.65291446063424,12.0854926571753,67.4512895560996,331.879809383227,8.73910548548891,6.64638255110872,12,20
8.31458396993645,4.21234128842692,8.67859384784276,32.9092371007062,35.5203104166615,19.8672893802809,14.6507947235633,5.90857808661633,12.585039411484,65.6581900078467,48.7228679873212,9.28453350159914,6.67520280559676,12,20
8.21878768913145,4.43176132024322,10.4756753212629,32.6888649066422,33.1698217638102,19.8676058447369,14.6762123536216,4.17511940230037,13.4174631548338,63.2096100738017,50.8037095189669,9.77151696252587,6.87520280559676,12,20
8.12511460827272,4.63850089102201,12.0110943158906,32.2784572721155,31.8390512816547,19.8533764386565,14.691757842901,2.66511803773096,14.3315841276253,58.6495252457281,54.379623603359,10.2308190871452,7.07520280559676,12,20
8.02311582450762,4.79570552347728,13.4056997088077,31.873652579611,31.4139849731343,19.8118472844067,14.7594522044868,1.28605813409325,15.1364802261667,54.1516953290107,61.9385694561015,10.5791833520356,7.27520280559676,12,20
7.93225488679212,4.84870140108169,14.4348436008882,31.4288570953618,31.0228443752436,19.7475954898988,14.8701660657243,0.324608603598563,15.740419050546,49.209523281798,65.996118575706,10.6949030142431,7.47520280559676,12,20
7.86169959274927,4.85574449538764,14.7760018985521,31.0290349033223,30.6943199291142,19.6760103259353,14.9731020663812,0.0941641671722095,16.1981694668721,44.7670544813585,65.5853671400271,10.7085293842835,7.67520280559676,12,20
7.80256867407169,4.87419036338893,14.8211279101082,30.7161818756404,30.4189904507072,19.6122501728159,15.063522068459,0.151974156273013,16.7684399913125,41.290909729338,65.0401987112192,10.7477594637648,7.87520280559676,12,20
7.75497298119301,4.85889737789272,14.939077793627,30.4523549610703,30.1973720894881,19.5635325343104,15.1398016701478,0.124444274832058,17.4398587499627,38.3594995674476,64.4675106497867,10.7122339938954,8.07520280559676,12,20
7.7183279921958,4.78832351117938,14.8413127249088,30.2389001408791,30.0267431540263,19.5256171578508,15.1697127544743,0.298488945239001,18.046870357218,35.9877793431015,63.9045342497111,10.5547389780209,8.27520280559676,12,20
7.69161861801187,4.67857888930528,14.3870952957409,30.0738837310574,29.9023771163069,19.4913234433693,15.1255565137407,0.782617458733341,18.5021458816408,34.1542636784153,97.4194611240469,10.3116713797881,8.47520280559676,12,20
7.67375171325715,4.55130270498892,13.6705595110334,29.9532365782577,29.8191839970914,19.4600696864682,14.99688357904,1.45499700270727,18.7088425650155,32.8137397584189,295.073803601116,10.0312763202811,8.67520280559676,12,20
7.6587159011682,4.62404736794727,12.8233722848802,29.8723550268741,29.7491732076016,19.4333089252063,14.8540797527822,2.17351129415977,16.4313576045043,31.9150558541562,62.3402680338252,10.1956157838031,8.87520280559676,12,20
7.64889627276292,4.63902988671691,13.3097550768653,29.8041796175396,29.7034503738043,19.415369373977,14.7627755511505,1.54432467591693,15.1888486627363,31.1575513059956,61.862647802104,10.2306509736599,9.07520280559676,12,20
7.64812884158944,4.61116478602738,13.4092069456385,29.759601036351,29.6998770076292,19.4448247027352,14.6800350337728,1.35356860551201,15.0726496051444,30.6622337372333,61.4060142262523,10.1702521477642,9.27520280559676,12,20
7.65560288637344,4.58642092326378,13.2240461648245,29.7561152821236,29.7346781725357,19.5223709204045,14.6065462321663,1.45598886894834,15.920287715383,30.6235031347064,82.1556170418155,10.1166080898244,9.41725437563962,12,20
7.66371451136745,4.53482541682684,13.0589110035628,29.7900519930595,29.7724480825689,19.6011756642031,14.5311252653956,1.5476352286035,16.8476515702495,31.0005777006609,214.180542364966,10.0032772555403,9.61725437563962,12,20
7.6711501748316,4.54347098437822,12.7123819280405,29.8268554963121,29.8070705337159,19.6357208550388,14.4592142914049,1.8187433373551,16.6255096069785,31.4095055145793,176.613823727575,10.0238358835155,9.81725437563962,12,20
7.68140645111821,4.57122971841484,12.770656314055,29.86056632407,29.8548265176165,19.6224753427539,14.4230403126746,1.68855797734994,16.0360163754288,31.7840702674447,115.945865081764,10.086251132341,10.0172543756396,12,20
7.6920838114737,4.5823312991421,12.9571922025931,29.9070245365299,29.9045431823189,19.6054531745432,14.4150584857463,1.46584811008148,15.62571774967,32.3002726281099,92.4686543011659,10.1110956963525,10.2172543756396,12,20
7.70233238095088,4.58152111675547,13.0315525258163,29.9553405691332,29.9522632812397,19.6131598126912,14.4363339692202,1.38350595993001,15.421056295931,32.837117434813,80.3680013830688,10.1088953733975,10.4172543756396,12,20
7.7120533768326,4.63754005287316,13.0261304211476,30.0016688268888,29.9975268554504,19.6402465334531,14.5571499988899,1.41020354807262,15.5556257621308,33.3518758543196,58.7888563102451,10.2312309063602,10.3156737041683,12,20
7.71968478132781,4.70992421497116,13.3993285822612,30.0455693528476,30.0330607295414,19.6734427875462,14.7479881432384,1.15782141662868,16.1078412981292,33.8396594760841,58.7721990271133,10.3885898184493,10.5156737041683,12,20
7.72506922322937,4.73236353473127,13.876508942484,30.0800040019068,30.0581321408001,19.6983463014931,14.9559858097121,0.871479200754493,16.643085526617,34.2222666878538,58.5530345777139,10.4344811350623,10.7156737041683,12,20
7.73414744079411,4.77232516681924,14.0233038862729,30.1042844273661,30.1004027660985,19.7023757080325,15.1642285705073,0.932681923439191,17.3270298044125,34.4920491929568,58.2687268710217,10.5192832373432,10.9156737041683,12,20
7.74243990479076,4.78346346441633,14.2834225768462,30.1451926179431,30.139014711219,19.6887149260391,15.3631047443375,0.880805993661113,18.1730774532069,34.9465846438117,57.9675119806146,10.5401626656503,11.1156737041683,12,20
7.75013296184484,4.67119556555879,14.3556290156831,30.1825284820612,30.1748356562241,19.6637376009865,15.5134761076005,1.00747572865441,18.7545863177979,35.3614275784575,57.668968062896,10.2878833167447,11.3156737041683,12,20
7.75894762756176,4.46299153708962,13.6218959931428,30.2171386842303,30.2158791131575,19.6301151982199,15.5943223602031,1.89158011445767,19.0717218644991,35.7459853803372,345.429742880625,9.82425530589801,11.5156737041683,12,20
7.77058851512747,4.23664618098824,12.2248958236769,30.2567631079709,30.2700822199811,19.5974482944887,15.6045034780407,3.36942653652625,19.1857473465506,36.1862567552325,739.928909684445,9.32210888973676,11.7156737041683,12,20
7.78405188542272,4.01167151722526,10.6487112804866,30.3090403214635,30.3327712970984,19.5742196936018,15.5628021711066,4.95579219755405,18.8037328008089,36.7671146829278,1052.42130565284,8.82425799009653,11.9156737041683,12,20
7.79415887276584,3.76508375245946,9.01713502927583,30.3694285415339,32.442702961347,19.5623670878139,15.5025925388979,6.54566714183073,17.3960849645365,37.4380949059325,1231.40973237401,8.27916125673952,12.1156737041683,12,20
7.79511566410319,3.5868678193973,7.14652803843194,30.414710505616,34.8567110076858,19.56491174168,15.4604452697216,8.35606450046595,15.6848849920594,37.9412278401781,1109.40435294099,7.88540210102737,12.3156737041683,12,20
7.78887526948749,3.49402033232591,5.73541886723706,30.4189948926909,36.6601531451815,19.5959508094319,15.4639795046973,9.7250264024845,14.6983848186169,37.9888321410097,868.901796020933,7.67997495699162,11.775497596452,12,20
7.77893961227161,3.4764479310491,4.97888846986001,30.3910440876797,37.7341063774105,19.667188800338,15.5325656533467,10.4850910348373,14.7949171172689,37.6782676408861,586.195422180651,7.64015361544436,10.5351430612942,12,20
7.76413074344447,3.5041593816544,4.83397885781534,30.3465073598301,38.0846183302928,19.764214559229,15.6646564008399,10.6985867955314,15.7924096583275,37.1834151092236,354.06687000095,7.69956994942367,10.6692282067042,12,20
7.74496165958423,3.52151233029587,5.06224571332427,30.2800468699755,38.0211574224602,19.8442050606893,15.8252704173328,10.6024106875156,16.8003198948454,36.4449652219498,280.690400170197,7.73566167053939,10.8692282067042,12,20
7.73194656999799,3.49217230399441,5.20448382284223,30.1938764247811,37.9967246705883,19.8689917009162,15.9618666552517,10.6207865944905,17.1221876332631,35.4875158309009,339.128057760983,7.66889763887318,11.0692282067042,12,20
7.72294882306939,3.4318336584481,4.9636751264739,30.1352783917583,38.2258995917924,19.8435853847917,16.0570275321071,10.9981915287778,16.7688600775202,34.8364265750926,432.815488094545,7.53428117088399,11.2692282067042,12,20
7.71779774917989,3.37104911720249,4.46353339839561,30.0947242853325,38.6967928936309,19.806521130695,16.1258616636828,11.5934941337115,16.0101504383219,34.3858253925835,481.088273204255,7.39911231838001,11.4692282067042,12,20
7.71737041145404,3.3390025486112,3.95283674192058,30.0714916648353,39.2268877112222,19.7898677014113,16.1943142513044,12.1730249217622,15.2157181926132,34.1276851648369,448.167378452034,7.327444374525,11.6692282067042,12,20
7.71669132737857,3.35096308895241,3.68074261706039,30.0695637415269,39.5427858787911,19.8051585568001,16.2825404818178,12.513571634244,14.6491877443985,34.1062637947434,348.222321097517,7.35266176264827,11.5709985223149,12,20
7.71452719267141,3.40655559952476,3.78252780423196,30.0664999056504,39.4682540194744,19.8483700440491,16.3998906904426,12.5000126775858,14.4263817533578,34.0722211738934,213.777593420417,7.47377021086222,10.8030110828419,12,20
7.7084555280069,3.50108565167638,4.2520020915598,30.0567345860148,38.9413479733306,19.906168892872,16.548124681911,12.1478885988828,14.6557522609767,33.9637176223865,67.966368581706,7.68035643997184,10.4962614413515,12,20
7.70036375608754,3.60867568148073,5.03699486016149,30.0293261367468,38.0642108136013,19.9608348120421,16.719143653197,11.5111298217495,15.1938964541976,33.6591792971869,58.114464858209,7.91539439821118,10.6962614413515,12,20
7.69538413434725,3.68681411449316,5.91093382378097,29.992773336865,37.1207159019119,19.994723597937,16.8881778131828,10.8082098294161,15.5825346449792,33.2530370762779,58.1294844076334,8.08539148392333,10.8962614413515,12,20
7.6938847107811,3.7254097657813,6.53322378565639,29.9702646186356,36.3675600797407,19.9977486646195,17.0360008760592,10.3549540275264,15.6009010127746,33.0029402070623,57.9372242969473,8.16837614730035,11.0962614413515,12,20
7.6932533818468,3.74659337610156,6.83688221726442,29.963484827338,35.8628162063234,19.9812466525696,17.162754070698,10.1991186587948,15.3552304141535,32.9276091926444,88.7364387641605,8.21322319998238,11.2962614413515,12,20
7.69291431957203,3.76883647508116,7.00252706155237,29.9606299138764,35.5141623006386,19.9662100360856,17.2769918749867,10.1602270091456,15.0306029977527,32.89588793196,114.739222199059,8.26057868958954,11.4962614413515,12,20
7.69323244966108,3.79975520543222,7.1756878078711,29.9590965778439,35.2058091956027,19.965942941335,17.3872246174882,10.1013040671156,14.763800849274,32.8788508649325,106.613827184997,8.32711633912599,11.423856677705,12,20
7.69370476882286,3.85198178211533,7.41509484279567,29.9605352540528,34.8452539038128,19.9821257438207,17.5006504682325,9.97212977469258,14.6632991688464,32.8948361561427,67.8951446905013,8.44058588138979,11.0626689405255,12,20
7.69334979833273,3.93176287598722,7.81613149940887,29.9626711352226,34.3296448414867,20.009374505237,17.6237016456299,9.68451896882362,14.8420281169412,32.9185681691405,57.3909111136782,8.61465936928026,10.9256512800129,12,20
7.69276389763053,4.01805124372286,8.42080925760229,29.9610659273571,33.6162890027182,20.0379584907365,17.7541528334738,9.20289238802764,15.2214377395335,32.9007325261904,57.6369035242364,8.80293711977393,11.1256512800129,12,20
7.69352969330335,4.07518162018426,9.06435229826246,29.9584163107569,32.9303009993684,20.0561566392749,17.8788801438764,8.68980053521136,15.5243899098958,32.8712923417432,57.5399370855386,8.92694657766068,11.3256512800129,12,20
7.69586465822192,4.09588858046288,9.48465297614547,29.9618794352482,32.4611698480272,20.0570435383966,17.9854016194792,8.39422716773089,15.5761747150348,32.9097715027583,57.3225844046481,8.97087862958426,11.5256512800129,12,20
7.69901203509953,4.09898882531716,9.63588158579375,29.9724371442679,32.2148852668121,20.0455196736802,18.0746017550641,8.34952003368545,15.4327085901019,33.0270793807548,107.18672254162,8.97625126854831,11.7256512800129,12,20
7.70258554485807,4.09976106957154,9.65847330352199,29.9866644168343,32.119454660985,20.0349577625714,18.1511196043697,8.41612845154208,15.2022321365873,33.1851601870476,140.763097007958,8.97669718999762,11.9256512800129,12,20
7.70647113494645,4.10540406745049,9.66409867802844,30.0028126570696,32.0801351083023,20.0353081841875,18.2207232874565,8.48702092634124,14.9804741305533,33.3645850785508,145.727393966497,8.98799564897746,11.7807798620225,12,20
7.70989549737033,4.13123572477846,9.70518030270182,30.0203647513112,31.9918695242827,20.0485471617479,18.2904019104009,8.51554298475469,14.8965183054839,33.5596083479023,101.562808793799,9.04379922789892,11.4839243249983,12,20
7.71199094879025,4.18428928784656,9.89268960820283,30.0358278543632,31.7335251788995,20.0713036223634,18.3683671169581,8.39771230219804,15.0731401882168,33.7314206040358,56.8199340013573,9.15947151246454,11.3738577634562,12,20
7.71301592196011,4.24194217471971,10.2750136526323,30.0452875574541,31.3138673006173,20.0961652060049,18.4532277673111,8.09335346432584,15.4145338934929,33.8365284161562,57.0138247192762,9.28515482146218,11.5738577634562,12,20
7.71408695742442,4.27095587773939,10.6863150858527,30.0499139904098,30.902610639239,20.1125874977832,18.5333246223546,7.76691268145845,15.6630964805923,33.8879332267753,56.9108123188619,9.3477588856186,11.7738577634562,12,20
7.71596645984614,4.26710180695104,10.8916922169773,30.0547478409013,30.6824537882286,20.114064708855,18.5979911759959,7.64163240537727,15.659727714129,33.9416426766813,91.5185772073021,9.33815586901533,11.9738577634562,12,20
7.71847852364413,4.25137430279551,10.8644720424912,30.0632292838034,30.6604093362105,20.1058870779022,18.6477552205142,7.73351913350473,15.4673187575405,34.0358809311485,153.227109153835,9.30263841185026,12.1738577634562,12,20
7.72149149036543,4.23705047962916,10.7531986951968,30.0745627956186,30.7491114879996,20.1002437448818,18.6872561197347,7.8945565253174,15.2040868367295,34.1618088402072,178.432153653445,9.27039709603594,12.2858571340237,12,20
7.72475027979315,4.23402201592242,10.6515832351629,30.0881525368088,30.8469232576857,20.1059851163731,18.7223149301522,8.0356728845718,14.9878830893597,34.3128059645424,164.636245296083,9.26312845467476,11.9332708169262,12,20
7.72716786459151,4.26099623126101,10.6300653196555,30.1028465492674,30.8259860445465,20.1244581819279,18.7621657225746,8.09224961049671,14.9835963120122,34.4760727696382,87.6176273772069,9.32189464889895,11.6382413464933,12,20
7.72782019293488,4.31664222963829,10.8213117775818,30.1137445221167,30.5727906590736,20.1512736065144,18.8162446344332,7.9408539449928,15.2804395400105,34.5971613568521,56.5728775445019,9.44360101404248,11.6385716625431,12,20
7.72496125855923,4.36344759650136,11.212944427699,30.1166846438955,30.0576294282264,20.1768688507179,18.877851968502,7.60330020673422,15.6679076294927,34.6298293766166,56.6933017880381,9.54568852920325,11.8385716625431,12,20
7.71690946611818,4.37328067597304,11.5393904585953,30.1037977001866,30.0201381146697,20.1892621021977,18.9317774672339,7.33846150990672,15.8655212196931,34.486641113185,56.5709953326826,9.56641662752791,12.0385716625431,12,20
7.70904831516177,4.35508775480214,11.6076324032213,30.0674841082605,29.9835344791959,20.1852944756831,18.9699559214698,7.32414506401255,15.7936792851777,34.0831567584505,56.365858244674,9.52565691174531,12.2385716625431,12,20
7.70519047824548,4.32939367956363,11.481280672121,30.0320027868041,29.9655713517882,20.1748091149043,18.994809368182,7.48867524934877,15.5573082876996,33.6889198533792,121.178577849301,9.46860945860986,12.4385716625431,12,20
7.70366666830622,4.3082841245206,11.3021460958807,30.0145804697382,29.958476082424,20.1709140246304,19.0107420248781,7.69266327230127,15.2788583138021,33.4953385526464,156.884415608737,9.42182589221149,12.5901877898276,12,20
7.70320901066694,4.29825479009383,11.1543670672399,30.0076970066321,29.9563451052309,20.180557747957,19.0232318066563,7.85637495763814,15.0615955921459,33.4188556292455,158.810984969124,9.39951615244516,12.2097747472997,12,20
7.70436399243535,4.31803451932216,11.0839626058331,30.0056294427407,29.9617230113242,20.2029712816233,19.0414796657681,7.93926920082322,15.0522451548161,33.3958826971184,84.3404169750258,9.44277585975488,11.9079574680351,12,20
7.70632679095378,4.36869840572824,11.2226938235849,30.0108471361672,29.9708623297111,20.2326218275368,19.077593953981,7.81878584218322,15.3547643692925,33.4538570685248,56.2180732481025,9.5537670707507,11.9008876322483,12,20
7.70734150680102,4.41275482220374,11.5758458277691,30.0197128358021,29.9755871199088,20.2602748268953,19.124126702021,7.50174812621185,15.7496107684832,33.5523648422452,56.3453137536342,9.65001907059381,12.1008876322483,12,20
7.70651353436334,4.42147215503835,11.8804141692879,30.0242955057959,29.9717318573067,20.2741486669202,19.1659995965911,7.24371253273318,15.9597531722126,33.6032833977324,56.2318122344749,9.66848561933623,12.3008876322483,12,20
7.70481623376645,4.39616798868036,11.9404037235429,30.0205562423797,29.9638287687281,20.2709440521851,19.1923756075152,7.22559587304818,15.8902959551062,33.5617360264406,56.0341651767745,9.61227198370212,12.5008876322483,12,20
7.70354173451133,4.36645896937188,11.7660199224835,30.0128900007698,29.9578943570364,20.2605779558808,19.2051621506997,7.42635568503175,15.6450461612916,33.4765555641089,90.4626560240028,9.54660380672573,12.7008876322483,12,20
7.70313369877087,4.34246749191021,11.5603019303392,30.0071326013161,29.955994432765,20.2568821008088,19.2096685574032,7.64486022036044,15.3643286284872,33.4125844590675,127.902256606867,9.49368179323183,12.8992024860441,12,20
7.70327686177087,4.32847902749706,11.3933952970232,30.0052891966747,29.9566610382397,20.267015733085,19.2107200528652,7.81627326038,15.1422727443592,33.3921021852746,135.56950504388,9.46285478987983,12.5091619553126,12,20
7.70504612036629,4.34281792120995,11.295754393526,30.0059359800994,29.9648991826342,20.2902104815864,19.2173522968097,7.91496565933926,15.1142617411639,33.3992886677707,68.4352018379975,9.49432013266171,12.1952019551751,12,20
7.7082499440912,4.39069873827598,11.3958382514101,30.0139284099517,29.9798170485293,20.3209046643815,19.2433273970626,7.82151404539957,15.4027778101302,33.4880934439083,55.8666274004674,9.59932822473567,12.1605728269522,12,20
7.71099493199975,4.4378409805216,11.7282281581868,30.0283978142568,29.9925984513216,20.3498957307567,19.2835022427053,7.51509923887585,15.8101319118858,33.6488646028537,56.008168806486,9.7024638768481,12.3605728269522,12,20
7.71195575730167,4.44788337965606,12.052805258413,30.0407913818484,29.9970723126302,20.3655845833592,19.3209890168532,7.23069698429231,16.0450617704634,33.7865709094268,55.9080488863533,9.72391927249332,12.5605728269522,12,20
7.71174518778445,4.42053467065908,12.1216083384371,30.0451287050179,29.9960918442621,20.3637112652306,19.3429174628624,7.19938067841611,15.9925063465871,33.8347633890881,55.7215115630362,9.66328988671172,12.7605728269522,12,20
7.71165826677788,4.38509283538242,11.9339566160497,30.0441781944455,29.9956871166519,20.3535029813846,19.3504175317336,7.4089608468127,15.7525046492148,33.8242021605058,76.6337953806892,9.58510151007876,12.9605728269522,12,20
