Pdis,Psuc,T0,Tc,Tdis,Tret,Tsuc,Tsh,Tsup,CondFan,CprPower,Density,Cpr,Tset,Tamb
9.18226313033146,2.85746971962694,-0.671375416425178,36.2531285011272,55.9802826755978,17.4754266449099,11.3064172520412,11.9777966554726,7.00400362656887,100,3456.12658648709,6.32163224273089,75.8256219769633,7,20
9.18718265158033,2.8574928005065,-0.67138671804463,36.2531320688183,56.0069868162052,17.4754215444835,11.3064193170596,11.9778039700858,7.00401695475836,20,3456.17139393973,6.32168354811232,75.8256749656223,7,20
9.22888497619878,2.85801433640228,-0.671165031563191,36.2726045565171,56.2230715300773,17.4754172656117,11.3064208747612,11.9775843486228,7.00444151406361,20,3460.73016977327,6.32284336994916,75.8257686191665,7,20
9.32085855388438,2.86042618289273,-0.666156167980603,36.4373573065712,56.6447920157025,17.4754129741784,11.3042196450472,11.9725770427418,7.00496852632079,20,3482.63196478574,6.32823266433813,75.8266946774115,7,20
9.45055508637105,2.86590888562531,-0.643001788793299,36.7987494839615,57.1976511750852,17.4753958072436,11.294792660694,11.9472214338405,7.00690762539244,20,3519.85244071819,6.34053565600401,75.8278352614392,7,20
9.61170800044866,2.87502138379481,-0.590422216715751,37.3038439693701,57.8305321099638,17.4753630227315,11.2713434124361,11.8852148774097,7.01154279210829,20,3576.44755362065,6.36107618484759,75.8318427057972,7,20
9.77272151267718,2.88652392494785,-0.50320363575787,37.9242437378463,58.4037890301145,17.4752745147172,11.2261433549595,11.7745470481939,7.01891079083623,20,3645.19738286057,6.38719069447797,75.8413418334267,7,20
9.92989374703626,2.89913294568667,-0.39341247946993,38.5363572757246,58.9231531984466,17.4750285959773,11.155623874535,11.6195558344294,7.02940483246169,20,3720.18775952978,6.41607081326762,75.8564608108831,7,20
10.0791898113155,2.91184280234397,-0.273446195854149,39.1266100439721,59.3868086267087,17.4745399817534,11.0581260582601,11.4290700703892,7.04279965823144,20,3798.26011360194,6.44550383520252,75.8780603652336,7,20
10.2198974980101,2.92400327034895,-0.152926166160569,39.6808263453889,59.8118982115463,17.4737389199756,10.9381145914649,11.2110522244207,7.05852668081678,20,3876.82732644152,6.47399404802767,75.9057696230742,7,20
10.3517294281056,2.9351724777022,-0.0379939601819501,40.197550429772,60.2070603136004,17.4725942648736,10.7988795464825,10.9761085516468,7.07631724027135,20,3952.7309050193,6.50052104393126,75.938531030417,7,20
10.4750718369017,2.94516926115904,0.0672460113478905,40.6768587039568,60.5583976134023,17.4711248809412,10.6466807768425,10.7316335351346,7.09583452465472,20,4026.04189859322,6.52460722816126,75.9758972965076,7,20
10.5903933321376,2.95379751967256,0.161178082484753,41.121172027041,60.9001685674823,17.4693707645624,10.4887607838352,10.4855026943578,7.11668866429773,20,4087.98654126288,6.54572778958655,76.0172882842442,7,20
10.6982653343808,2.96083765861677,0.242054201392875,41.5330554050821,61.2408189654858,17.4673812135231,10.333028945261,10.2467065824423,7.1379691237172,20,4143.45655795323,6.56329545427512,76.0620157905372,7,20
10.7998708948503,2.96616052465487,0.307909734684245,41.9152975598998,61.5677520235617,17.4652028017192,10.1873932434165,10.0251192105767,7.15972607276069,20,4196.14553053113,6.57692286106312,76.1083142100801,7,20
10.9063549151751,2.96985490904999,0.357621489291148,42.2726995616271,61.9582891630573,17.4629261499718,10.0596815145631,9.82977175412537,7.18180459145412,20,4242.4359117792,6.58670878015714,76.1563601611196,7,20
11.0136576705865,2.97219531508521,0.392084074544073,42.6445651212216,62.3814093093849,17.4605487720887,9.95354313800721,9.66759744001899,7.20314881792325,20,4287.81705549051,6.59321723809691,76.2059096402111,7,20
11.1089820892306,2.97292179089489,0.413899193958571,43.0165451120352,62.7909080375891,17.4581552509287,9.87292756339207,9.53964394404863,7.22354228177375,20,4324.86123843732,6.59581746254685,76.254832224016,7,20
11.1967778615019,2.97216992303746,0.420668048783568,43.344727219002,63.2070373145928,17.4557889710578,9.82134343534915,9.4522595146085,7.24333067159404,20,4352.82367349821,6.59476711789468,76.3026817451855,7,20
11.2782681732911,2.97000924068125,0.413662583462553,43.6451263836382,63.6341724472526,17.4535383809641,9.80276189246416,9.4076808518866,7.26390170777171,20,4372.77294461736,6.59017222824557,76.3501718981574,7,20
11.3538315535231,2.96653317766987,0.393523019590646,43.9223741035029,64.0703053508502,17.4514439448125,9.81958889132875,9.40923887287352,7.28646938493546,20,4384.97078549838,6.58221262008983,76.4002420482248,7,20
11.4237750733916,2.96181440039807,0.361099230973252,44.1781177275195,64.5114034917135,17.4494559661612,9.87158907257839,9.4584896603555,7.31090542593267,20,4391.18428887602,6.57105527506619,76.4555692420884,7,20
11.4882894340767,2.95594224116101,0.317036948981013,44.4137057298901,64.9531910322008,17.4474963934711,9.95715457452701,9.55455212359738,7.33631042070857,20,4393.17789252965,6.55692216835211,76.5160614294729,7,20
11.5476588381009,2.94906108533027,0.262129332478594,44.6300496510656,65.3943297545047,17.4454323000294,10.0726127913318,9.69502524204842,7.36154306789388,20,4391.81777568215,6.54018378572157,76.5799649634107,7,20
11.6091401882809,2.94136212435673,0.197680238157091,44.8283366917867,65.8563175572495,17.4432563929251,10.2132495867608,9.87493255317469,7.38559403211775,20,4387.21944645727,6.52132762890334,76.644927239473,7,20
11.6745896700326,2.93314169572066,0.125434308863589,45.0328730985769,66.3382062890348,17.441026033901,10.3717129404708,10.0878152778972,7.40523118932794,20,4387.89592925533,6.50110655070272,76.7087747259257,7,20
11.7320224498398,2.92469845531284,0.0481342527963307,45.2497198179535,66.7828712152826,17.4388238960083,10.5414136151916,10.3235786876745,7.41897639149175,20,4387.4830498461,6.48026776667815,76.764309061315,7,20
11.7833936678378,2.91646336478028,-0.0314346802232421,45.4392557914552,67.1930620536255,17.4368711494576,10.7171283588692,10.5728482954149,7.42847911314755,20,4385.07601160565,6.45983496111617,76.8078823230332,7,20
11.8299291480344,2.90889634182169,-0.109212431620051,45.6081990377775,67.5677023408268,17.4354286297681,10.8947545175871,10.8263407904892,7.43576569396873,20,4381.24533878567,6.44088074075986,76.8426890557143,7,20
11.8713024278614,2.90267856474401,-0.180829607827604,45.7607628827763,67.8937651059692,17.434869897966,11.069146399772,11.0755841254147,7.44260292692758,20,4376.8341319105,6.42498023087081,76.8729384887496,7,20
11.9104275842358,2.89718714028873,-0.239784372081715,45.896025195984,68.1863035748306,17.4345777381393,11.2397714745641,11.3089307718537,7.44816410510708,20,4373.51129004418,6.41075057972932,76.9024577145903,7,20
11.9458662338794,2.89319993891902,-0.291932981542004,46.023612772772,68.4339725528777,17.4347775756668,11.3996709284145,11.5317044561061,7.45159329785389,20,4369.58984561064,6.40000135674037,76.9293119805503,7,20
11.9782485500727,2.89060533378611,-0.329844611966053,46.1389075535849,68.6420870231104,17.4352887421345,11.5455918827273,11.7295155403806,7.45305160614538,20,4367.52929596713,6.39251863709321,76.9514156011814,7,20
12.0084666305027,2.88917275346618,-0.35453657620991,46.2440348654857,68.818643646997,17.43599407636,11.6781002140461,11.9001284589372,7.45239957298662,20,4367.13297565975,6.38777995426648,76.968961601149,7,20
12.0367761648512,2.88890481646355,-0.368177259436095,46.3419439991583,68.9648479099029,17.4369028707781,11.7959449603935,12.0462774734822,7.44981440685569,20,4368.43261643807,6.3858033363305,76.9814622352436,7,20
12.0634065795057,2.88975763239363,-0.37072906852211,46.4335017543387,69.0821352787254,17.4380388461631,11.8983543259409,12.1666740289156,7.44587986248553,20,4371.39325507219,6.38649831034538,76.9891679022162,7,20
12.0885659030483,2.89164517960209,-0.362607555190493,46.5194816342033,69.1737475102748,17.4394176325098,11.984966179417,12.2609618811314,7.44129059143819,20,4376.04733338973,6.38967657979867,76.9933149973965,7,20
12.112953660419,2.89428698359244,-0.344638674176565,46.6005812019558,69.2483127263878,17.4410385242722,12.0624312372501,12.3296048535935,7.43607425303247,20,4381.09581255037,6.39463631280119,76.9954639607627,7,20
12.136148686238,2.8978955435951,-0.31950464691181,46.6790729146489,69.2983940597147,17.4429364850008,12.1235397963517,12.3819358841619,7.43060283360666,20,4388.96435458064,6.40193359026238,76.9956491461334,7,20
12.1582426855577,2.90228267570535,-0.285201449397505,46.7536159214987,69.3186238643033,17.4449963246362,12.1680640317677,12.4087412457492,7.42612136716656,20,4399.08287669353,6.41115315032233,76.9947355012222,7,20
12.1793815866423,2.90719925090152,-0.243541341287994,46.8245211887119,69.3240637345653,17.4471505841192,12.1968042515473,12.4116053730557,7.42307967356538,20,4409.08507766923,6.42173281879457,76.9957214272171,7,20
12.1996956655608,2.9124183660483,-0.196911195570806,46.892270882213,69.3173263292815,17.4493204861105,12.210579298934,12.3937154471182,7.42115765291851,20,4420.852768983,6.43315986546858,76.9997790894422,7,20
12.2192814763104,2.91773935497799,-0.147478024489374,46.9572939776133,69.3025333083407,17.4514142438078,12.2103365688587,12.3580573234234,7.4198844395961,20,4434.10671343525,6.44497842713811,77.0062413445279,7,20
12.2382127937297,2.92299951178086,-0.0971500666155976,47.0199091086921,69.283296513855,17.453378381788,12.1972505751002,12.3074866354743,7.41900904638658,20,4448.52712466013,6.45681422028971,77.0140445236295,7,20
12.2565376794982,2.92806798052772,-0.0474668422978652,47.080360332701,69.2628050202548,17.4552108748553,12.1727497655164,12.2447174173981,7.41859706141031,20,4463.70264056135,6.46836053658572,77.0226243178312,7,20
12.2743166520967,2.93285670602655,0.000340821850613793,47.1388083299358,69.2436419111839,17.456951371849,12.1389846487867,12.1724089436657,7.41885204507878,20,4479.22988860511,6.47939692252563,77.0321728333136,7,20
12.2915294828464,2.93724873466523,0.0454513906606735,47.1954524937942,69.2284402312733,17.458611521787,12.0973563922255,12.0935332581261,7.41998534443724,20,4494.78054514296,6.4896473617192,77.0432250926896,7,20
12.3082196820653,2.94118397710435,0.086775223381153,47.2502343079656,69.2191043300644,17.4602097487036,12.0503421753018,12.0105811688444,7.4220002426764,20,4510.08679001933,6.49894905765573,77.0563483315042,7,20
12.3243442310147,2.94457374709296,0.123760880036912,47.3032978593138,69.2175600212661,17.4617313071376,11.9997485996669,11.9265812952648,7.42480677175672,20,4524.80126781549,6.50708339174819,77.0716077643997,7,20
12.3398597357288,2.94736179580728,0.155589370935331,47.3545117837312,69.2251974754716,17.4631679120591,11.9477632830229,11.8441592287315,7.42818004764251,20,4538.57373366696,6.51389901712565,77.0888359037688,7,20
12.3545556282432,2.94946510303615,0.181746839884681,47.4037438621178,69.2434420523097,17.4645304146469,11.8971996326263,11.7660164431382,7.43192802970907,20,4550.60468171449,6.51917741084922,77.1075219121557,7,20
12.3686433031353,2.95101282595962,0.201467473457114,47.450332433403,69.2706199597602,17.4658400109599,11.849572024626,11.6957321591692,7.43590274062228,20,4561.74141055445,6.52318696111137,77.1272210319036,7,20
12.3821048250979,2.95201102641512,0.215972034883691,47.4949538353052,69.306981944639,17.4671054815134,11.8061954284353,11.6335999897423,7.44013298534895,20,4571.66730572994,6.52592495918916,77.1475854934014,7,20
12.3952482501363,2.95254440379898,0.225323616081994,47.537556347213,69.3492244086269,17.4683020974856,11.7656810185257,11.5808718123533,7.44456865679012,20,4581.80846727864,6.52759592322374,77.1687019734446,7,20
12.4076918551318,2.95252041697845,0.230319533201225,47.5791186466074,69.4010758640401,17.4694690778242,11.7318815514618,11.5353614853245,7.4494597663446,20,4589.64684636049,6.5279476887553,77.1904599751224,7,20
12.4192041681045,2.95201826200582,0.230094873851669,47.6184375091278,69.4605443248188,17.4706880589954,11.7075982318584,11.5017866776101,7.4545705317708,20,4595.14011845993,6.52712247170488,77.2135053598047,7,20
12.4300505420082,2.95112583633074,0.225391393400969,47.6547873723168,69.5258839459034,17.4719089358039,11.6904835460564,11.4822068384574,7.45964620762584,20,4599.84117231106,6.52534368686916,77.2372679254682,7,20
12.4405587610145,2.94985359310944,0.217030887898432,47.6890114279407,69.5973537489471,17.4730599039419,11.677481310871,11.473452658158,7.46462442755688,20,4604.81817474408,6.52267116417614,77.2611125643034,7,20
12.4503271215149,2.94824330708811,0.205108777464375,47.7221471274265,69.6745766016369,17.4742112038109,11.6727541841408,11.4723725334067,7.4695894070195,20,4607.36365610862,6.51914795254859,77.2848776769406,7,20
12.459747958459,2.94638199291829,0.190013217346575,47.7529309948839,69.7560342606815,17.4753879291027,11.6748566132023,11.4827409667943,7.47446542129103,20,4609.12619774919,6.51498493857043,77.3087729222637,7,20
12.4686463148678,2.94436299237497,0.172556500431767,47.7826025221944,69.8395210247854,17.4766248993642,11.6844189562958,11.5023001127706,7.47917757002244,20,4609.73790445049,6.51038226676386,77.3326027402249,7,20
12.4770263907374,2.9422202966364,0.153611296143254,47.8106130109656,69.9236917120925,17.4778987830374,11.6996980628145,11.5308076601525,7.48364146702863,20,4609.96263083437,6.50543654229791,77.3561682272516,7,20
12.4847622204492,2.94004975824468,0.133494470580445,47.8369783332953,70.0064957556251,17.4792373566789,11.7208123466482,11.566203592234,7.48778466886608,20,4609.38326301619,6.50035961117015,77.3792405085859,7,20
12.4919605486063,2.93786810292362,0.113104749750335,47.8613049442097,70.0874509170475,17.480622717347,11.7460857138769,11.6077075968979,7.49156988550806,20,4608.63695741429,6.49520881905948,77.4016155862441,7,20
12.4985379588615,2.93577530572273,0.0925989266148122,47.8839311364918,70.1645619603792,17.4820856862295,11.7752406069521,11.6534867872621,7.49494961201776,20,4607.40937961314,6.4902098055801,77.4231757432696,7,20
12.5046208556459,2.93377267560653,0.0729172884976492,47.9045970737382,70.2378715361136,17.4836112537923,11.8068549019129,11.7023233184544,7.49793938506002,20,4606.19090930436,6.48538248855841,77.4437740076892,7,20
12.51015451011,2.93195460091264,0.0540735157536005,47.9237020102833,70.3055356881764,17.4852261984619,11.8403678523405,11.7527813861593,7.50051698507195,20,4604.7903074626,6.48094332535025,77.4634251944259,7,20
12.5153024959788,2.93030470660971,0.0369577484281081,47.9410758513532,70.3682221098175,17.4869146478241,11.8747095844439,11.8034101039124,7.50272429544873,20,4603.54106104845,6.47686861194356,77.4820463896295,7,20
12.5203877650425,2.92891241520615,0.0214182014129278,47.95723364475,70.4255475673758,17.4886949993883,11.9091246956816,11.853291383031,7.50453668123504,20,4602.45480850236,6.47336595566477,77.4997221772656,7,20
12.5249799592116,2.9277377894787,0.00829965267354282,47.9731896964015,70.4759571117964,17.4905511965509,11.942904664237,11.900825043008,7.50598956129005,20,4601.68127312461,6.47035491787193,77.5163649382531,7,20
12.5291237904235,2.92683906388343,-0.00277172228658173,47.9875944494107,70.5187126296969,17.4924938566045,11.975215841091,11.9456763865236,7.50709018886675,20,4601.09717503379,6.46797465810201,77.5320446904364,7,20
12.5328334091973,2.92626638524631,-0.0112449223026942,48.0005893810276,70.5533527270106,17.4945260205058,12.0048673961662,11.9864607633937,7.50807150161882,20,4600.8233252739,6.46635056583864,77.5467596888068,7,20
12.5363078792006,2.9259099819213,-0.0166451902535414,48.012219900253,70.5825540975996,17.4966225069045,12.0321049671474,12.0215125864197,7.50891256633139,20,4600.99248198399,6.46523572394823,77.5611094547253,7,20
12.5395924391517,2.92576383761269,-0.0200064270646294,48.0231108311535,70.6065442550612,17.498777069695,12.0566208084544,12.052111394212,7.50956350154394,20,4601.59703160524,6.46462032281662,77.5750329448512,7,20
12.5427268150632,2.92581517553282,-0.0213848038912374,48.0334043957022,70.6257133106575,17.5009830488212,12.0782024367839,12.0780056123456,7.51003895230349,20,4602.63163734154,6.46447842294186,77.5883904804414,7,20
12.5457450202347,2.92604717686747,-0.0209005983678026,48.0432254086715,70.640540932059,17.5032370316702,12.0967373449894,12.0991030351517,7.51040306938762,20,4604.06948126829,6.46477394179234,77.6012120706478,7,20
12.5486759139273,2.92643879887829,-0.0187125053760155,48.0526806811231,70.651568763033,17.5055367986109,12.1122037399342,12.1154498503654,7.5107365752329,20,4605.88064060917,6.46546036052955,77.6136618347191,7,20
12.5515436741429,2.92696504039965,-0.0150192717447339,48.0618607956943,70.6593841408737,17.507878706449,12.1246565038856,12.127223011679,7.51110944770983,20,4608.03806154541,6.46648147897896,77.6259528705638,7,20
12.5543681316527,2.92759813487445,-0.0100570929815262,48.0708416073456,70.6646008917957,17.5102567472915,12.134213813812,12.1347135968671,7.51156869644291,20,4610.51505019621,6.46777422112566,77.6382746190589,7,20
12.5571649928292,2.92830924583617,-0.00408825692176151,48.0796853055761,70.6678367310337,17.512663274407,12.14104652748,12.1383020707338,7.51213957543598,20,4613.28061374641,6.46927252243445,77.6507589137951,7,20
12.5599460429414,2.92907008705607,0.00261493724877937,48.0884411257335,70.6696914300787,17.5150904376451,12.145370014374,12.1384315902312,7.51283348545979,20,4616.29657841433,6.47091102027648,77.6634815387252,7,20
12.5627193856185,2.92985410704696,0.00978552062571225,48.0971459973247,70.6707291738752,17.5175314104531,12.1474370411965,12.1355844937482,7.51365606457864,20,4619.51765115242,6.47262776444816,77.6764820904432,7,20
12.5654897521134,2.9306371699132,0.01717305453775,48.1058253041714,70.6714662812709,17.519980970529,12.1475304214417,12.1302639866587,7.51461193955595,20,4622.89371140094,6.47436581259135,77.6897849880102,7,20
12.5682588786703,2.93139785834933,0.0245500519647521,48.1144938618196,70.6723635868464,17.5224354677623,12.1459548325396,12.1229803694769,7.51570575239128,20,4626.37294556027,6.47607399729729,77.7034120138621,7,20
12.5710259290424,2.93211757988667,0.0317148148450315,48.123157106855,70.6738220090399,17.5248924596552,12.1430279189308,12.1142400176946,7.51694091578753,20,4629.90466451344,6.47770726580237,77.7173850533938,7,20
12.5737879348665,2.93278061157152,0.0384924025257192,48.1318124261916,70.6761800230192,17.5273503062373,12.1390712134149,12.1045355164051,7.51831789556542,20,4633.44126409349,6.47922688615352,77.7317227084631,7,20
12.5765402322531,2.9333741404856,0.0447350117746055,48.1404505408693,70.6797123423962,17.5298078956703,12.1344014805607,12.0943362016403,7.51983319767004,20,4636.93934343025,6.48060064005391,77.7464355299493,7,20
12.5792768816903,2.9338882936602,0.0503223141836315,48.149056876618,70.6846296896221,17.5322645323374,12.1293229294765,12.0840791663771,7.52147939024923,20,4640.36027868895,6.48180298256873,77.7615230626452,7,20
12.5819910650846,2.9343161255284,0.0551616943515683,48.1576128808498,70.6910797984632,17.5347199312689,12.1241205256243,12.0741612351249,7.52324588073787,20,4643.67056489105,6.48281509498866,77.7769736636538,7,20
12.5846754566884,2.93465353646903,0.0591880924908423,48.1660972668019,70.6991497843359,17.5371742408318,12.1190544638878,12.0649324331334,7.52511995725456,20,4646.84210611876,6.48362477113748,77.7927664010438,7,20
12.5873225649367,2.93489911421956,0.0623632054658287,48.1744871747377,70.7088698834394,17.5396280389115,12.1143557818194,12.0566912584219,7.52708770758892,20,4649.85248348599,6.48422611888524,77.8088737359946,7,20
12.5899250413623,2.93505390888126,0.0646739708591326,48.1827592409936,70.720218381329,17.5420822851841,12.1102230785202,12.0496818109603,7.52913464851162,20,4652.68514042406,6.48461910090243,77.8252639395552,7,20
12.5924759521616,2.93512116170384,0.0661304357817016,48.1908905630288,70.7331274490649,17.544538240354,12.1068203183702,12.0440926427385,7.53124608989407,20,4655.32940887501,6.48480895959495,77.8419027715392,7,20
