Pdis,Psuc,T0,Tc,Tdis,Tret,Tsuc,Tsh,Tsup,CondFan,CprPower,Density,Tamb,Tset,target,setpoint
9.10673346886419,2.54813018851661,-3.77502034724137,35.9531832639847,59.3940731094317,14.0836014022651,8.80316697616871,12.5781892491408,3.99906341469983,99.4798140442747,3773.89950007806,5.66003497629369,10,4,0,0
9.10673310436609,2.54813021297948,-3.77502009974324,35.9531818112065,59.394069044718,14.0835983281086,8.80316505717303,12.578187075912,3.99906165766043,99.4797979022944,3773.89849001737,5.66003505087918,10,4,0,0
9.10673274005703,2.54813023831278,-3.77501984308287,35.9531803591781,59.3940649691439,14.0835952641424,8.80316314489812,12.5781849002559,3.99905990962679,99.4797817686459,3773.89747916466,5.6600351273373,10,4,0,0
9.10673237593772,2.54813026451364,-3.7750195772901,35.9531789079028,59.3940608827584,14.0835922103457,8.8031612393296,12.5781827221882,3.99905817057692,99.4797656433649,3773.89646752625,5.66003520566181,10,4,0,0
9.1067320120089,2.54813029157919,-3.77501930239515,35.9531774573833,59.394056785612,14.0835891666969,8.80315934045313,12.5781805417247,3.99905644048818,99.4797495264815,3773.89545510832,5.66003528584648,10,4,0,0
9.10673164827128,2.54813031950659,-3.77501901842788,35.9531760076227,59.3940526777527,14.0835861331747,8.80315744825435,12.578178358881,3.99905471933869,99.4797334180299,3773.89444191704,5.66003536788507,10,4,0,0
9.10673128472559,2.548130348293,-3.77501872541825,35.9531745586237,59.3940485592299,14.0835831097584,8.80315556271887,12.5781761736726,3.99905300710606,99.4797173180416,3773.89342795856,5.66003545177143,10,4,0,0
9.10673092137253,2.54813037793558,-3.7750184233962,35.9531731103892,59.3940444300922,14.0835800964268,8.80315368383248,12.5781739861151,3.99905130376845,99.479701226547,3773.89241323891,5.66003553749938,10,4,0,0
9.10673055821283,2.5481304084315,-3.77501811239119,35.9531716629221,59.3940402903892,14.0835770931586,8.8031518115809,12.5781717962237,3.99904960930377,99.4796851435789,3773.89139776434,5.6600356250627,10,4,0,0
9.10673019524719,2.54813043977793,-3.77501779243323,35.9531702162251,59.3940361401686,14.083574099933,8.80314994594983,12.5781696040141,3.99904792368989,99.4796690691683,3773.89038154091,5.66003571445527,10,4,0,0
9.10672983247631,2.54813047197205,-3.77501746355165,35.9531687703013,59.3940319794799,14.0835711167289,8.80314808692515,12.5781674095015,3.99904624690475,99.4796530033473,3773.8893645747,5.66003580567093,10,4,0,0
9.10672946990092,2.54813050501106,-3.77501712577623,35.9531673251532,59.3940278083709,14.0835681435253,8.80314623449254,12.5781652127014,3.99904457892649,99.4796369461464,3773.88834687184,5.66003589870354,10,4,0,0
9.1067291075217,2.54813053889214,-3.77501677913665,35.9531658807838,59.3940236268903,14.0835651803013,8.80314438863786,12.5781630136292,3.9990429197332,99.4796208975976,3773.88732843829,5.66003599354703,10,4,0,0
9.10672874533936,2.5481305736125,-3.77501642366207,35.9531644371959,59.394019435086,14.0835622270362,8.80314254934694,12.5781608122999,3.99904126930318,99.479604857732,3773.88630928012,5.66003609019526,10,4,0,0
9.10672838335458,2.54813060916934,-3.77501605938198,35.9531629943921,59.3940152330063,14.0835592837091,8.8031407166057,12.5781586087289,3.99903962761454,99.4795888265792,3773.88528940331,5.66003618864215,10,4,0,0
9.10672802156806,2.54813064555987,-3.77501568632562,35.9531615523754,59.3940110206988,14.083556350299,8.80313889040002,12.5781564029313,3.99903799464539,99.4795728041715,3773.8842688139,5.66003628888164,10,4,0,0
9.10672765998051,2.54813068278131,-3.77501530452224,35.9531601111485,59.3940067982118,14.0835534267853,8.80313707071582,12.5781541949223,3.99903637037409,99.4795567905385,3773.88324751794,5.66003639090765,10,4,0,0
9.10672729859259,2.54813072083089,-3.77501491400113,35.9531586707141,59.3940025655932,14.083550513147,8.80313525753911,12.578151984717,3.99903475477896,99.4795407857124,3773.88222552135,5.66003649471411,10,4,0,0
9.106726937405,2.54813075970582,-3.77501451479156,35.9531572310748,59.3939983228901,14.0835476093636,8.80313345085568,12.5781497723307,3.99903314783825,99.4795247897204,3773.88120283005,5.660036600295,10,4,0,0
9.10672657641841,2.54813079940334,-3.7750141069223,35.9531557922336,59.3939940701503,14.0835447154141,8.80313165065161,12.578147557778,3.9990315495304,99.4795088025961,3773.88017945004,5.6600367076443,10,4,0,0
9.10672621563352,2.5481308399207,-3.77501369042261,35.9531543541933,59.393989807421,14.0835418312781,8.8031298569129,12.5781453410742,3.99902995983371,99.4794928243702,3773.87915538719,5.66003681675595,10,4,0,0
9.10672585505098,2.54813088125513,-3.77501326532138,35.9531529169561,59.39398553475,14.0835389569348,8.80312806962553,12.5781431222343,3.99902837872668,99.4794768550681,3773.87813064744,5.66003692762401,10,4,0,0
9.10672549467149,2.54813092340391,-3.77501283164753,35.9531514805252,59.3939812521841,14.0835360923638,8.80312628877562,12.5781409012731,3.99902680618777,99.4794608947245,3773.87710523668,5.66003704024248,10,4,0,0
9.10672513449571,2.54813096636427,-3.77501238942961,35.9531500449031,59.3939769597704,14.0835332375443,8.80312451434912,12.5781386782052,3.99902524219567,99.4794449433673,3773.87607916075,5.66003715460536,10,4,0,0
9.10672477452431,2.5481310101335,-3.77501193869682,35.9531486100922,59.3939726575558,14.0835303924559,8.80312274633218,12.5781364530459,3.99902368672895,99.4794290010248,3773.87505242553,5.66003727070673,10,4,0,0
9.10672441475794,2.54813105470885,-3.77501147947766,35.9531471760956,59.393968345587,14.0835275570781,8.80312098471097,12.5781342258098,3.99902213976605,99.4794130677292,3773.87402503689,5.66003738854062,10,4,0,0
9.10672405519729,2.5481311000876,-3.77501101180064,35.9531457429159,59.3939640239113,14.0835247313902,8.80311922947158,12.5781319965116,3.99902060128568,99.4793971435102,3773.87299700064,5.66003750810108,10,4,0,0
9.10672369584299,2.54813114626704,-3.77501053569443,35.9531443105554,59.3939596925746,14.083521915372,8.80311748060012,12.578129765166,3.9990190712665,99.4793812283938,3773.87196832257,5.66003762938221,10,4,0,0
9.10672333669573,2.54813119324445,-3.77501005118773,35.9531428790171,59.3939553516233,14.0835191090031,8.80311573808279,12.5781275317879,3.99901754968721,99.4793653224121,3773.87093900844,5.6600377523781,10,4,0,0
9.10672297775615,2.54813124101713,-3.77500955830874,35.9531414483035,59.393951001105,14.0835163122631,8.8031140019059,12.5781252963915,3.99901603652665,99.4793494255943,3773.8699090641,5.66003787708285,10,4,0,0
9.10672261902488,2.54813128958237,-3.77500905708587,35.9531400184169,59.3939466410642,14.0835135251315,8.80311227205561,12.5781230589918,3.99901453176375,99.4793335379661,3773.86887849528,5.66003800349057,10,4,0,0
9.10672226050261,2.5481313389375,-3.77500854754766,35.9531385893603,59.3939422715488,14.0835107475884,8.80311054851819,12.5781208196033,3.99901303537735,99.4793176595591,3773.86784730769,5.6600381315954,10,4,0,0
9.10672190218996,2.5481313890798,-3.77500802972213,35.9531371611363,59.3939378926039,14.083507979613,8.80310883127993,12.5781185782403,3.99901154734613,99.4793017904031,3773.86681550716,5.66003826139149,10,4,0,0
9.10672154408758,2.5481314400066,-3.77500750363765,35.9531357337473,59.3939335042751,14.0835052211854,8.80310712032707,12.5781163349176,3.99901006764901,99.4792859305259,3773.86578309933,5.66003839287296,10,4,0,0
9.1067211861961,2.54813149171522,-3.77500696932242,35.9531343071959,59.3939291066089,14.083502472285,8.80310541564586,12.5781140896495,3.99900859626501,99.4792700799539,3773.8647500899,5.66003852603397,10,4,0,0
9.10672082851618,2.54813154420299,-3.77500642680445,35.9531328814845,59.3939246996508,14.083499732892,8.80310371722271,12.5781118424503,3.99900713317305,99.4792542387163,3773.86371648458,5.66003866086876,10,4,0,0
9.10672047104845,2.54813159746725,-3.77500587611183,35.9531314566159,59.3939202834462,14.0834970029862,8.80310202504398,12.5781095933345,3.99900567835232,99.4792384068433,3773.862682289,5.66003879737148,10,4,0,0
9.10672011379353,2.54813165150533,-3.77500531727242,35.9531300325925,59.3939158580409,14.0834942825471,8.80310033909603,12.5781073423164,3.99900423178184,99.4792225843614,3773.86164750888,5.66003893553634,10,4,0,0
9.10671975675205,2.54813170631458,-3.77500475031411,35.9531286094169,59.39391142348,14.083491571555,8.80309865936533,12.5781050894101,3.9990027934407,99.4792067712991,3773.86061214978,5.66003907535758,10,4,0,0
9.10671939992467,2.54813176189235,-3.775004175265,35.9531271870915,59.3939069798091,14.0834888699898,8.80309698583818,12.5781028346303,3.99900136330797,99.4791909676836,3773.85957621737,5.66003921682939,10,4,0,0
9.10671904331197,2.548131818236,-3.77500359215259,35.9531257656189,59.3939025270729,14.0834861778313,8.80309531850116,12.5781005779908,3.99899994136285,99.4791751735433,3773.85853971721,5.66003935994605,10,4,0,0
9.10671868691461,2.54813187534289,-3.77500300100468,35.9531243450015,59.3938980653165,14.0834834950597,8.8030936573407,12.5780983195058,3.99899852758477,99.4791593889059,3773.85750265494,5.6600395047018,10,4,0,0
9.10671833073319,2.54813193321039,-3.77500240184906,35.9531229252419,59.393893594585,14.0834808216548,8.80309200234319,12.5780960591898,3.9989971219527,99.4791436137992,3773.8564650361,5.66003965109088,10,4,0,0
9.10671797476833,2.54813199183587,-3.77500179471332,35.9531215063424,59.3938891149232,14.083478157597,8.80309035349524,12.5780937970565,3.99899572444622,99.4791278482492,3773.85542686626,5.66003979910763,10,4,0,0
9.10671761902065,2.54813205121673,-3.77500117962484,35.9531200883058,59.3938846263755,14.0834755028661,8.80308871078336,12.5780915331201,3.99899433504453,99.4791120922861,3773.85438815095,5.6600399487463,10,4,0,0
9.10671726349076,2.54813211135033,-3.77500055661125,35.9531186711341,59.3938801289872,14.0834728574424,8.80308707419414,12.5780892673946,3.998992953727,99.479096345934,3773.85334889569,5.6600401000012,10,4,0,0
9.10671690817926,2.54813217223407,-3.77499992569983,35.95311725483,59.3938756228023,14.083470221306,8.80308544371405,12.578086999894,3.99899158047305,99.4790806092226,3773.85230910605,5.66004025286668,10,4,0,0
9.10671655308676,2.54813223386535,-3.77499928691827,35.953115839396,59.3938711078651,14.0834675944369,8.8030838193298,12.5780847306323,3.99899021526204,99.4790648821777,3773.85126878751,5.660040407337,10,4,0,0
9.10671619821388,2.54813229624157,-3.77499864029357,35.9531144248342,59.3938665842199,14.0834649768157,8.80308220102791,12.5780824596234,3.99898885807363,99.4790491648239,3773.85022794548,5.66004056340657,10,4,0,0
9.10671584356119,2.54813235936014,-3.77499798585325,35.9531130111472,59.3938620519112,14.0834623684224,8.80308058879518,12.5780801868812,3.99898750888724,99.4790334571911,3773.8491865855,5.66004072106972,10,4,0,0
9.10671548912933,2.54813242321847,-3.77499732362418,35.9531115983375,59.3938575109826,14.0834597692373,8.80307898261816,12.5780779124194,3.99898616768252,99.4790177593056,3773.84814471299,5.66004088032082,10,4,0,0
9.10671513491887,2.54813248781398,-3.77499665363382,35.9531101864073,59.3938529614783,14.0834571792408,8.80307738248348,12.578075636252,3.99898483443889,99.4790020711921,3773.84710233338,5.66004104115424,10,4,0,0
9.10671478093041,2.54813255314409,-3.77499597590889,35.9531087753592,59.393848403442,14.083454598413,8.8030757883779,12.5780733583924,3.99898350913611,99.4789863928797,3773.84605945215,5.66004120356436,10,4,0,0
9.10671442716453,2.54813261920625,-3.77499529047674,35.9531073651953,59.3938438369176,14.0834520267346,8.80307420028811,12.5780710788546,3.99898219175378,99.4789707243923,3773.84501607462,5.66004136754563,10,4,0,0
9.10671407362184,2.54813268599788,-3.77499459736418,35.9531059559181,59.3938392619481,14.0834494641858,8.80307261820093,12.5780687976523,3.99898088227167,99.4789550657566,3773.84397220618,5.66004153309243,10,4,0,0
9.10671372030291,2.54813275351643,-3.77499389659812,35.95310454753,59.3938346785782,14.0834469107472,8.80307104210306,12.578066514799,3.99897958066964,99.4789394169996,3773.84292785229,5.66004170019921,10,4,0,0
9.10671336720833,2.54813282175934,-3.77499318820537,35.9531031400331,59.39383008685,14.0834443663991,8.80306947198136,12.5780642303084,3.99897828692735,99.4789237781453,3773.84188301823,5.66004186886038,10,4,0,0
9.10671301433869,2.54813289072407,-3.77499247221283,35.95310173343,59.3938254868076,14.0834418311221,8.80306790782259,12.5780619441942,3.99897700102457,99.4789081492223,3773.8408377094,5.66004203907043,10,4,0,0
9.10671266169454,2.54813296040807,-3.77499174864698,35.9531003277229,59.3938208784941,14.0834393048967,8.80306634961357,12.5780596564696,3.99897572294117,99.4788925302544,3773.83979193109,5.66004221082378,10,4,0,0
9.10671230927648,2.54813303080881,-3.77499101753477,35.9530989229141,59.3938162619524,14.0834367877036,8.80306479734122,12.5780573671483,3.99897445265714,99.4788769212682,3773.83874568862,5.66004238411497,10,4,0,0
9.10671195708509,2.54813310192376,-3.77499027890264,35.9530975190059,59.393811637225,14.083434279523,8.80306325099235,12.5780550762439,3.99897319015236,99.4788613222877,3773.83769898729,5.66004255893842,10,4,0,0
9.10671160512092,2.54813317375039,-3.77498953277711,35.9530961160005,59.3938070043558,14.083431780336,8.80306171055389,12.5780527837695,3.99897193540676,99.4788457333388,3773.83665183239,5.66004273528867,10,4,0,0
9.10671125338455,2.54813324628619,-3.77498877918475,35.9530947139004,59.393802363387,14.083429290123,8.80306017601282,12.5780504897386,3.99897068840062,99.4788301544487,3773.8356042292,5.66004291316024,10,4,0,0
9.10671090187653,2.54813331952864,-3.77498801815204,35.9530933127077,59.3937977143614,14.0834268088647,8.80305864735601,12.5780481941649,3.99896944911359,99.4788145856414,3773.83455618297,5.66004309254763,10,4,0,0
9.10671055059744,2.54813339347523,-3.77498724970513,35.9530919124245,59.3937930573206,14.0834243365418,8.80305712457039,12.5780458970611,3.998968217526,99.4787990269389,3773.83350769892,5.66004327344539,10,4,0,0
9.10671019954784,2.54813346812345,-3.77498647387085,35.9530905130533,59.3937883923085,14.083421873135,8.80305560764299,12.5780435984412,3.99896699361784,99.4787834783703,3773.83245878233,5.66004345584806,10,4,0,0
9.10670984872827,2.54813354347082,-3.77498569067484,35.9530891145963,59.3937837193666,14.0834194186253,8.80305409656074,12.5780412983178,3.99896577736934,99.478767939959,3773.8314094383,5.66004363975023,10,4,0,0
9.10670949813932,2.54813361951484,-3.77498490014381,35.9530877170556,59.3937790385377,14.0834169729934,8.8030525913108,12.5780389967045,3.99896456876058,99.478752411729,3773.83035967215,5.66004382514645,10,4,0,0
9.1067091477815,2.54813369625302,-3.77498410230345,35.9530863204336,59.3937743498631,14.0834145362201,8.80305109188004,12.5780366936143,3.99896336777181,99.4787368937068,3773.82930948897,5.6600440120313,10,4,0,0
9.1067087976554,2.54813377368288,-3.77498329718014,35.9530849247324,59.3937696533853,14.0834121082861,8.80304959825565,12.5780343890602,3.99896217438345,99.4787213859152,3773.82825889397,5.66004420039939,10,4,0,0
9.10670844776154,2.54813385180195,-3.77498248479992,35.953083529954,59.3937649491464,14.0834096891725,8.8030481104247,12.5780320830556,3.99896098857567,99.4787058883781,3773.82720789228,5.66004439024533,10,4,0,0
9.10670809810049,2.54813393060776,-3.77498166518859,35.9530821361009,59.3937602371874,14.0834072788602,8.80304662837426,12.5780297756133,3.99895981032881,99.4786904011208,3773.82615648903,5.66004458156375,10,4,0,0
9.10670774867277,2.54813401009783,-3.77498083837219,35.9530807431751,59.393755517551,14.0834048773301,8.80304515209156,12.5780274667464,3.9989586396232,99.478674924168,3773.82510468939,5.66004477434926,10,4,0,0
9.10670739947893,2.54813409026972,-3.77498000437663,35.9530793511788,59.3937507902781,14.0834024845631,8.80304368156357,12.5780251564682,3.99895747643916,99.4786594575424,3773.82405249842,5.66004496859649,10,4,0,0
9.10670705051952,2.54813417112096,-3.77497916322756,35.9530779601141,59.3937460554106,14.0834001005405,8.80304221677761,12.5780228447911,3.99895632075743,99.4786440012679,3773.8229999212,5.66004516430016,10,4,0,0
9.10670670179506,2.54813425264912,-3.77497831495089,35.9530765699834,59.3937413129898,14.0833977252432,8.80304075772085,12.5780205317285,3.99895517255828,99.4786285553712,3773.82194696287,5.6600453614549,10,4,0,0
9.10670635330609,2.54813433485174,-3.77497745957214,35.9530751807885,59.3937365630565,14.0833953586521,8.80303930438049,12.578018217293,3.99895403182234,99.4786131198718,3773.82089362844,5.66004556005538,10,4,0,0
9.10670600505313,2.54813441772639,-3.77497659711707,35.9530737925318,59.3937318056527,14.0833930007486,8.80303785674369,12.5780159014976,3.99895289853004,99.4785976947974,3773.81983992295,5.6600457600963,10,4,0,0
9.10670565703673,2.54813450127064,-3.77497572761126,35.9530724052151,59.3937270408187,14.0833906515138,8.80303641479782,12.5780135843549,3.99895177266205,99.4785822801677,3773.81878585143,5.66004596157238,10,4,0,0
9.10670530925741,2.54813458548206,-3.77497485108012,35.9530710188406,59.393722268596,14.0833883109286,8.80303497853004,12.5780112658779,3.99895065419895,99.4785668760067,3773.81773141899,5.66004616447834,10,4,0,0
9.10670496171568,2.54813467035822,-3.77497396754927,35.9530696334107,59.3937174890254,14.0833859789743,8.80303354792773,12.5780089460793,3.99894954312128,99.4785514823415,3773.81667663056,5.66004636880886,10,4,0,0
9.10670461441207,2.54813475589671,-3.77497307704391,35.9530682489273,59.3937127021474,14.0833836556321,8.80303212297804,12.5780066249716,3.99894843940979,99.4785360991917,3773.81562149115,5.66004657455869,10,4,0,0
9.1067042673471,2.54813484209512,-3.77497217958967,35.9530668653922,59.3937079080028,14.0833813408835,8.80303070366853,12.5780043025677,3.9989473430453,99.47852072658,3773.81456600569,5.66004678172267,10,4,0,0
9.10670392052128,2.54813492895105,-3.77497127521156,35.9530654828079,59.3937031066321,14.0833790347097,8.80302928998645,12.5780019788801,3.99894625400867,99.4785053645324,3773.81351017918,5.66004699029545,10,4,0,0
9.10670357393512,2.5481350164621,-3.77497036393504,35.9530641011762,59.3936982980758,14.0833767370918,8.80302788191926,12.5779996539215,3.99894517228057,99.4784900130684,3773.81245401652,5.66004720027186,10,4,0,0
9.10670322758915,2.54813510462586,-3.77496944578519,35.9530627204991,59.3936934823747,14.0833744480114,8.80302647945422,12.5779973277045,3.99894409784184,99.4784746722126,3773.81139752278,5.66004741164666,10,4,0,0
9.10670288148386,2.54813519343994,-3.77496852078713,35.9530613407788,59.3936886595687,14.0833721674495,8.80302508257876,12.5779950002413,3.99894303067327,99.4784593419872,3773.81034070279,5.66004762441467,10,4,0,0
9.10670253561976,2.54813528290197,-3.77496758896609,35.9530599620175,59.3936838296974,14.0833698953878,8.80302369128037,12.5779926715448,3.99894197075582,99.4784440224167,3773.80928356144,5.66004783857068,10,4,0,0
9.10670218999737,2.54813537300955,-3.77496665034693,35.9530585842169,59.3936789928018,14.0833676318077,8.80302230554651,12.5779903416273,3.99894091807039,99.4784287135208,3773.80822610363,5.66004805410952,10,4,0,0
9.10670184461718,2.54813546376033,-3.77496570495464,35.953057207379,59.393674148921,14.0833653766906,8.80302092536459,12.5779880105011,3.99893987259787,99.4784134153223,3773.80716833425,5.660048271026,10,4,0,0
9.10670149947969,2.54813555515194,-3.77496475281424,35.9530558315059,59.3936692980957,14.083363130018,8.80301955072218,12.5779856781788,3.99893883431952,99.4783981278431,3773.80611025812,5.660048489315,10,4,0,0
9.10670115458539,2.548135647182,-3.77496379395041,35.9530544565996,59.3936644403648,14.0833608917714,8.80301818160677,12.5779833446726,3.99893780321634,99.4783828511067,3773.80505188011,5.66004870897138,10,4,0,0
9.10670080993478,2.54813573984816,-3.77496282838797,35.9530530826622,59.3936595757684,14.0833586619324,8.80301681800591,12.5779810099947,3.99893677926917,99.4783675851352,3773.80399320507,5.66004892998998,10,4,0,0
