Pdis,Psuc,T0,Tc,Tdis,Tret,Tsuc,Tsh,Tsup,CondFan,CprPower,Density,Tamb,Tset
6,2.92803182339495,-66.8562457822183,-66.8562457822183,21.5510217973122,-273.15,0,66.8562457822183,-273.15,0,0,6.61608351884431,10,4
6.00456474341249,2.97894045176552,-1.70530256582424e-13,21.5716593574974,21.574776359586,-100.455059714369,0.00448257156182308,1.70530256582424e-13,-99.1332192836253,0,0,6.73174677360219,10,4
6.00896441436531,3.03800731130084,0.476697365314521,21.5965522886841,21.5976718978866,-36.8454557376281,0.0102856131638873,-0.472214793752698,-31.3561908893887,0,0,6.86596464801929,10,4
6.01340283839313,3.08111761071465,1.02199955080931,21.6205314921129,21.6207691041125,-13.4421268211642,0.0168621228577308,-1.01171393764542,-5.6009263114575,0,0,6.96391186251293,10,4
6.01778958960669,3.11360460175725,1.41486969223843,21.6447084620219,21.6435974091158,-4.81371962712979,0.0239880506218242,-1.3980075693807,3.51523393859173,0,0,7.03770357874442,10,4
6.0220847131642,3.13878190723695,1.70814692262286,21.6685907066278,21.6659488910725,-1.6320280106508,0.0315368003887215,-1.68415887200103,6.31373352751939,0,0,7.09487006684701,10,4
6.02627591471544,3.15855414594051,1.93382338664122,21.6919613648759,21.68775957116,-0.446601465458912,0.0394310620928877,-1.9022865862525,6.81035590184581,0,0,7.13974050628822,10,4
6.03036288267554,3.17411907817735,2.11007910922012,21.7147544167151,21.7090278279154,0.0118366947300501,0.0476190067440712,-2.07064804712724,6.52132142061055,0,0,7.17503791749288,10,4
6.03434978554934,3.18631143518728,2.24823466924187,21.736969075604,21.7297753539069,0.205400812791424,0.0560635612818032,-2.2006156624978,6.00334167715567,0,0,7.20266038953326,10,4
6.03824219240773,3.19576069413297,2.35609218391636,21.7586288671791,21.7500311301374,0.304212190624298,0.064736651998146,-2.30002862263456,5.45718050200168,0,0,7.2240395825742,10,4
6.04204602287299,3.20297238567348,2.43946567271877,21.7797648520507,21.769825961851,0.369651526431824,0.0736162044172488,-2.37472902072062,4.94917335600144,0,0,7.24032547641246,10,4
6.0457669361204,3.20833645104241,2.50296925090623,21.800409913216,21.7891892989467,0.422989421602722,0.0826850057905517,-2.42935304648898,4.49634552325227,0,0,7.25240524285257,10,4
6.04941026083242,3.2121676837347,2.55013216277905,21.8205954415558,21.8081488714647,0.471879406021799,0.0919291481292248,-2.4674471569885,4.09948811165742,0,0,7.26099517774784,10,4
6.05298099653832,3.21472598716372,2.58378078997163,21.840350963024,21.8267306965587,0.519069991458707,0.101337215277397,-2.4918516418424,3.75409021883684,0,0,7.26668674187392,10,4
6.05648383308814,3.21622836580487,2.60623249518733,21.8597041532099,21.8449591798355,0.565540330276519,0.110899767929709,-2.50489527990993,3.45428623657585,0,0,7.2699738126197,10,4
6.05992281197122,3.21684399283494,2.61941100047881,21.8786809496281,21.862855352885,0.611631682303027,0.120609547360573,-2.5085112325491,3.19473959214349,0,0,7.27124143858132,10,4
6.06330187441326,3.2167240082151,2.62480976869716,21.8973037242366,21.8804397255328,0.65748100273214,0.130460179894328,-2.50420022133659,2.97031990388024,0,0,7.27083363533805,10,4
6.06662466851243,3.21599597158687,2.62375762052619,21.9155942592461,21.897731282192,0.703131523109221,0.140446407986133,-2.49329744063186,2.77648643268003,0,0,7.26904075423362,10,4
6.06989458314676,3.21476807683076,2.61737280301264,21.9335727067657,21.9147476583149,0.748595736471032,0.15056390257007,-2.47692639502651,2.6092744756225,0,0,7.26610906862611,10,4
6.07311474489968,3.21313237685979,2.60660176000192,21.9512577770481,21.9315051243934,0.793876319646699,0.160809112782772,-2.45603785743185,2.46524020952734,0,0,7.26224811015583,10,4
6.07628804221649,3.21116761672212,2.59224856091362,21.9686667261311,21.9480187116674,0.838973046266574,0.171179145717531,-2.43143944813085,2.34139809767584,0,0,7.25763711485661,10,4
6.07941715008978,3.2089412868436,2.57500045767495,21.9858154904215,21.964302340586,0.883885038706012,0.181671669126217,-2.40382131195742,2.23516119502386,0,0,7.25242969567207,10,4
6.08250454830097,3.20651138882485,2.55544631275154,22.0027188236243,21.9803689157348,0.928611473501633,0.192284830626818,-2.37377464362532,2.14428681972629,0,0,7.24675786130664,10,4
6.08555253371661,3.20392776433574,2.53409231553042,22.0193903983981,21.996230389825,0.973168159436625,0.203017347720788,-2.3418074849036,2.06682982815585,0,0,7.24073503913873,10,4
6.08876428721267,3.20123044431751,2.51137373963428,22.0358428755503,22.0129441000024,1.01754278079716,0.213868181067369,-2.30835639191349,2.00121261927092,0,0,7.23445232682258,10,4
6.09214224638732,3.19845993475342,2.48764039807742,22.0531726051139,22.0305227313343,1.06171780732979,0.22483628972401,-2.27377221701005,1.94582287182999,0,0,7.22800189165655,10,4
6.09548766278528,3.19564785041269,2.46324708806321,22.0713916808205,22.0479320126402,1.10570172289209,0.235921154572111,-2.2384107983392,1.89938868926509,0,0,7.22145566144846,10,4
6.09880501674538,3.1928212708156,2.4384711376448,22.0894277123775,22.0651952592476,1.14949799250559,0.247122478369931,-2.20254998307269,1.86080784896234,0,0,7.214875237814,10,4
6.10209567457917,3.19000299026951,2.41355060694366,22.1073050652563,22.0823195813334,1.19310830837009,0.258440148877469,-2.16642812857373,1.8291411889486,0,0,7.20831246677418,10,4
6.10536031121615,3.18721272815373,2.38868637976663,22.1250312917319,22.0993084911772,1.23653379783184,0.269874201262439,-2.13024623088916,1.80356539541657,0,0,7.20181219298512,10,4
6.10859940664362,3.18446776366321,2.36405272848731,22.1426102081456,22.1161644865946,1.27977545691289,0.281424806374218,-2.09417852722487,1.78334160577504,0,0,7.19541370437629,10,4
6.11181339357255,3.18178273448484,2.33980282637441,22.1600445741821,22.1328898193793,1.32283428842572,0.293092251835049,-2.05837802000019,1.76782771075972,0,0,7.18915027552019,10,4
6.1150026282813,3.17916939910588,2.31606688346773,22.177336889425,22.1494863435755,1.36571128102912,0.304876890825142,-2.02297463163268,1.75649467543724,0,0,7.18304862886123,10,4
6.11816752427453,3.17663849790728,2.2929499513952,22.1944892371773,22.1659562110287,1.40840756305556,0.316779180545439,-1.98807306057006,1.74884235660102,0,0,7.17713316692384,10,4
6.12130860757983,3.17419874497104,2.27054830370776,22.2115040037746,22.1823021591447,1.45092430555246,0.328799634956397,-1.95376912316232,1.74444502688777,0,0,7.17142368107674,10,4
6.12442578116914,3.17185694126712,2.24894045877841,22.2283841751654,22.1985236829971,1.49326264668917,0.340938775040115,-1.92014082382201,1.74295302096249,0,0,7.16593561033062,10,4
6.12752002670006,3.16961899199927,2.22818811265512,22.2451293851195,22.214625891054,1.53542380270864,0.353197171301815,-1.887249337615,1.74404573511532,0,0,7.16068235444757,10,4
6.1305911090777,3.16748964826722,2.20834509843144,22.2617450580842,22.2306075599006,1.57740901699458,0.365575414716488,-1.85514792712962,1.74744302967599,0,0,7.15567468737609,10,4
6.13363996099613,3.1654726289827,2.18945505863405,22.2782300790425,22.2464735432025,1.61921955367671,0.378074106562906,-1.82387964391756,1.75289987766769,0,0,7.15092103499413,10,4
6.13666636976455,3.16357149706249,2.17155248893118,22.2945895985107,22.2622227341338,1.66085669189619,0.390693856920336,-1.79347838236828,1.76020221292089,0,0,7.14642946736407,10,4
6.13967121969798,3.16178988730371,2.15467048783728,22.3108226157672,22.2778597345995,1.70232172136519,0.403435293192842,-1.76397663091694,1.76916413359322,0,0,7.14220821670018,10,4
6.14265431965934,3.16013012424341,2.13884276916139,22.3269340113892,22.2933835499377,1.74361593856656,0.416299055262016,-1.73540747596854,1.77962437724256,0,0,7.13826253562129,10,4
6.14561650678134,3.15859304439988,2.12409136748386,22.3429228945827,22.3087985365202,1.78474064325735,0.429285773418485,-1.70779231222184,1.79144118699435,0,0,7.13459429387106,10,4
6.14855760937598,3.15717880466059,2.1104250258299,22.3587938832214,22.3241038008965,1.82569713504432,0.44239605200454,-1.68113925241141,1.80448842458787,0,0,7.13120381653865,10,4
6.15147841909754,3.1558871071896,2.09784635767966,22.3745461853495,22.3393034627726,1.86648671055099,0.455630463123555,-1.65545030567512,1.81865395834575,0,0,7.12809039557987,10,4
6.15437878181128,3.15471728148281,2.08635383622038,22.3901841660498,22.3543967200434,1.90711066108429,0.468989542822385,-1.63072337309683,1.83383845327353,0,0,7.12525247652313,10,4
6.15725944570157,3.15366833945314,2.07594251817358,22.405707122246,22.3693874662012,1.94757027086916,0.482473788150571,-1.60695297535119,1.84995393176376,0,0,7.12268778382814,10,4
6.16012027252095,3.15273903775709,2.0666045304377,22.4211191777257,22.384274981817,1.98788305358215,0.496083812390111,-1.58413074228713,1.86692277024588,0,0,7.12039346055945,10,4
6.16296196908588,3.15192789841584,2.05832962337257,22.4364197095716,22.3990629451076,2.02803944642784,0.509820027457067,-1.56224581098246,1.88467650266062,0,0,7.11836611958269,10,4
6.16578441157274,3.1512332229228,2.05110535451627,22.4516126122213,22.4137507117047,2.06802085608712,0.523682642686595,-1.5412853270592,1.90315353824411,0,0,7.11660187570659,10,4
6.16858826753811,3.15065314860373,2.04491721544946,22.4666973352813,22.4283417555198,2.10783815093993,0.537671979181766,-1.52123457276286,1.92229802936606,0,0,7.11509646961797,10,4
6.1713734262876,3.150185682138,2.03974913612058,22.4816775557654,22.4428355005081,2.1474957710804,0.551788310771428,-1.50207715693881,1.9420602446562,0,0,7.11384534623091,10,4
6.17414051819437,3.14982871759911,2.03558378680049,22.496552789072,22.4572352270814,2.18699600508819,0.566031863482465,-1.48379547602906,1.96239597173104,0,0,7.11284369572058,10,4
6.17688944455497,3.14958005653307,2.0324027427983,22.5113265064987,22.4715404215947,2.22634041561764,0.580402815167929,-1.46637087931583,1.9832655685579,0,0,7.11208649917878,10,4
6.17962080058357,3.14943742635059,2.03018666781992,22.5259982833359,22.4857541814954,2.2655303145126,0.594901295347142,-1.44978385265199,2.00463329057595,0,0,7.11156857042704,10,4
6.18233449855619,3.14939849662179,2.02891548267013,22.5405713965478,22.4998760502748,2.3045669210818,0.609527385178581,-1.43401418732299,2.02646664567658,0,0,7.11128459305568,10,4
6.18503110048208,3.14946089338748,2.02856851551695,22.5550454760912,22.5139089525845,2.34345141483163,0.624281117707028,-1.41904113033837,2.04873616018551,0,0,7.11122915294616,10,4
6.18771052871192,3.14962221185535,2.02912463462951,22.5694236155567,22.5278524843436,2.38218495299787,0.639162478209357,-1.40484351692248,2.07141505413421,0,0,7.11139676711798,10,4
6.19037331392549,3.1498800280282,2.03056236678987,22.5837054949064,22.5417094071674,2.42076867647768,0.654171404717545,-1.39139988858051,2.09447883875737,0,0,7.11178191014238,10,4
6.19301938773321,3.15023190791988,2.03286000618277,22.597894034856,22.5554793651622,2.45920371181649,0.669307788614788,-1.37868860146523,2.11790505975472,0,0,7.11237903507072,10,4
6.19564925127692,3.15067541585218,2.03599570172395,22.6119889611858,22.5691649662301,2.49749117199548,0.684571475375265,-1.36668791310916,2.14167305225391,0,0,7.1131825922703,10,4
6.19826284468848,3.15120812179759,2.03994753609129,22.6259930317464,22.5827658988222,2.53563215674274,0.699962265344766,-1.35537606071603,2.16576373473782,0,0,7.11418704608975,10,4
6.20086064127774,3.1518276077948,2.04469359611164,22.6399060143522,22.5962846260053,2.57362775279267,0.715479914645471,-1.34473133076688,2.19015942829537,0,0,7.11538688941395,10,4
6.20344258902604,3.15253147444595,2.05021203471006,22.6537305135055,22.6097208770785,2.61147903404583,0.731124136109599,-1.33473212006459,2.21484370108402,0,0,7.11677665840296,10,4
6.20600913503146,3.15331734648719,2.05648113339089,22.6674663356182,22.6230769787046,2.6491870617989,0.746894600333803,-1.32535699728129,2.23980123411519,0,0,7.11835094512252,10,4
6.20856023451057,3.15418287131911,2.06347935624387,22.6811159408679,22.6363526978344,2.68675288490903,0.762790936683075,-1.31658475591007,2.26501770053079,0,0,7.12010439418152,10,4
6.21109630988478,3.15512572423483,2.07118534103921,22.6946791711297,22.649550232715,2.72417754003607,0.778812734339738,-1.30839440435614,2.29047965537256,0,0,7.12203171458416,10,4
6.21361732304192,3.15614361628824,2.07957794976761,22.7081583507955,22.6626693850141,2.76146205181794,0.794959543405525,-1.30076521542787,2.31617444688965,0,0,7.12412769757712,10,4
6.21612367317911,3.15723429442663,2.08863634242186,22.7215533543297,22.6757122321216,2.79860743312372,0.811230876100808,-1.29367679901634,2.34209014442087,0,0,7.12638721692241,10,4
6.21861532833702,3.15839554325381,2.09833998166636,22.7348663784062,22.6886786077237,2.8356146852376,0.827626207906349,-1.28710910556555,2.36821547001625,0,0,7.12880523287496,10,4
6.22109266586071,3.15962518675833,2.1086686517998,22.7480973274435,22.7015704754941,2.87248479811655,0.844144978761506,-1.28104244389345,2.3945397364713,0,0,7.13137679608041,10,4
6.22355565946522,3.16092108972453,2.11960247718343,22.7612482780103,22.714387698648,2.90921875057512,0.860786594223271,-1.27545749842193,2.42105279423657,0,0,7.13409705075256,10,4
6.2260046659384,3.16228115889292,2.13112193762385,22.7743191620503,22.7271321338811,2.94581751054136,0.877550426676578,-1.27033534340057,2.44774498506473,0,0,7.13696123728094,10,4
6.22843966422821,3.16370335052525,2.14320788130971,22.7873119432022,22.7398036716402,2.98229808852199,0.894435972541487,-1.26565745463313,2.47460747117316,0,0,7.13996470729143,10,4
6.23086099178881,3.16518566872651,2.15584159442187,22.800226578698,22.75240406801,3.01865072671757,0.911442540911423,-1.26140562188039,2.50163223630204,0,0,7.14310292399627,10,4
6.23326863239498,3.16672615031268,2.16900478834481,22.8130649260187,22.7649332385557,3.05485673933111,0.928569255296964,-1.25756224743338,2.52881090989592,0,0,7.14637142779784,10,4
6.23566290484571,3.16832286983946,2.18267946730953,22.8258269656306,22.7773928422819,3.09092656723919,0.945815367340344,-1.25411021201256,2.55613462209124,0,0,7.14976584349156,10,4
6.23804379669927,3.16997394996749,2.19684797502725,22.8385144527182,22.7897828144428,3.12686429879579,0.963180101285047,-1.25103260768691,2.58359514823508,0,0,7.15328190588033,10,4
6.24041160987202,3.17167755933212,2.21149308839102,22.8511273855505,22.8021047261874,3.16267189826476,0.980662655195829,-1.24831298710598,2.6111849966278,0,0,7.15691545490917,10,4
6.24276633662004,3.17343191135152,2.22659800002839,22.8636674266571,22.8143585372165,3.19835061563299,0.998262202087687,-1.24593534483256,2.63889702466946,0,0,7.16066243293293,10,4
6.24510826304522,3.17523526364076,2.24214630905084,22.8761345970439,22.8265457363822,3.23390145668452,1.01597789110633,-1.24388410696315,2.66672451114039,0,0,7.16451888335966,10,4
6.24743738524674,3.1770859174483,2.25812201704491,22.8885304724646,22.8386663033845,3.26932533981085,1.0338088485621,-1.24214412593858,2.69466101273616,0,0,7.16848094934721,10,4
6.24975397421685,3.17898221746981,2.27450952412693,22.9008550922152,22.8507216484456,3.30462314844897,1.05175417898863,-1.24070067556482,2.72270010894437,0,0,7.17254487335677,10,4
6.25205802952462,3.18092255156734,2.29129362821243,22.9131099492137,22.8627117693233,3.33979574861189,1.0698129662228,-1.2395394492238,2.75083557252265,0,0,7.17670699649123,10,4
6.25434980793516,3.18290535014039,2.30845952331993,22.92529509915,22.8746380022025,3.37484399488102,1.08798427447402,-1.23864655709713,2.77906149441986,0,0,7.18096375704343,10,4
6.25662931219926,3.184929085473,2.32599279467763,22.9374119569728,22.8865003613981,3.40976873214106,1.1062671493172,-1.23800852020361,2.80737219263307,0,0,7.18531168899163,10,4
6.2588967857015,3.18699227116372,2.34387941351451,22.9494605933173,22.8983001134643,3.44457079647816,1.12466061870913,-1.23761226419731,2.83576219222556,0,0,7.18974742068268,10,4
6.26115223411199,3.1890934614136,2.36210573248718,22.9614423498227,22.9100372879079,3.47925101609781,1.14316369394362,-1.23744511377805,2.86422621028265,0,0,7.19426767319421,10,4
6.2633958882317,3.19123125155228,2.38065847975849,22.9733573107547,22.9217130857987,3.5138102115809,1.16177537063919,-1.23749478581487,2.89275914698874,0,0,7.19886926150719,10,4
6.26562775640703,3.1934042754539,2.39952476392017,22.9852067488264,22.9333275505708,3.54824919586002,1.18049462965007,-1.23774939328098,2.92135607870796,0,0,7.2035490886189,10,4
6.26784805760407,3.19561120379826,2.41869205137465,22.9969907607173,22.9448818217063,3.58256877433115,1.19932043732871,-1.23819742172458,2.9500122481233,0,0,7.20830414158431,10,4
6.27005680261997,3.19785075402818,2.4381481511499,23.0087105543291,22.9563759553926,3.6167697449423,1.21825153956433,-1.23882771382119,2.9787230363317,0,0,7.21313151690214,10,4
6.27225419928999,3.20012169349587,2.4578813027066,23.020366237629,22.9678110331881,3.65085289836361,1.23728630144421,-1.23962976314226,3.00748392354922,0,0,7.21802842982937,10,4
6.2744402606541,3.20242282689019,2.47788020341619,23.031958957574,22.9791871229517,3.68481901809332,1.25642291906269,-1.24059390197198,3.03629061714781,0,0,7.22299218297499,10,4
6.27661518407831,3.20475299053424,2.49813389754769,23.0434888323821,22.9905052517605,3.7186688806184,1.27565958497871,-1.241710978485,3.06513913457366,0,0,7.22802015111089,10,4
6.27877898465089,3.20711105386187,2.51863172596308,23.0549569516963,23.0017654981324,3.75240325551169,1.29499448628815,-1.24297214098436,3.0940256181849,0,0,7.23310978454386,10,4
6.28093184988823,3.20949591906763,2.53936333901362,23.0663634430175,23.0129688378881,3.78602290559098,1.31442580300535,-1.24436885272547,3.1229462750095,0,0,7.23825860833685,10,4
6.28307379674575,3.21190652045369,2.56031869328797,23.0777093420727,23.0241153592621,3.81952858708837,1.33395170661998,-1.24589289028262,3.15189743333394,0,0,7.24346422084059,10,4
6.28520500347235,3.21434182375949,2.58148804565394,23.0889947847464,23.0352059898476,3.85292104995006,1.35357035889109,-1.24753633903396,3.18087553860096,0,0,7.24872429218258,10,4
6.28732548872267,3.21680082545287,2.60286194711477,23.1002207560402,23.0462408267218,3.88620103779664,1.37327991076864,-1.24929158822368,3.2098771551062,0,0,7.2540365626674,10,4
6.28943542202471,3.21928255204169,2.62443123629873,23.1113873993888,23.0572207520951,3.9193692877717,1.39307850151073,-1.25115132553009,3.23889896268099,0,0,7.25939884122094,10,4
6.29153482357666,3.22178605936104,2.6461870331035,23.122495652063,23.068145871077,3.95242653060279,1.41296425790051,-1.25310853159277,3.26793775388842,0,0,7.26480900377792,10,4
6.29362385469966,3.22431043855486,2.66812073210411,23.1335456642777,23.0790170231701,3.98538936674311,1.43293544818181,-1.2551564742036,3.29699080098635,0,0,7.27026500474903,10,4
6.29570253699376,3.22685481275833,2.69022405454137,23.1445383283869,23.0898343207794,4.01824792920513,1.45299017196032,-1.25728860635957,3.32605587906863,0,0,7.27576487371392,10,4
6.29777102405846,3.22941832100272,2.71248901873179,23.1554738006869,23.1005985632243,4.05098352541529,1.47312636038248,-1.25949884677146,3.35513012727978,0,0,7.28130667889834,10,4
6.29982933876089,3.23200012316276,2.73490779883571,23.166352931269,23.1113098695037,4.08360627075939,1.49334208533492,-1.26178143845323,3.38420994990543,0,0,7.28688853417561,10,4
6.30187762742681,3.23459940910358,2.7574727679625,23.1771758818476,23.1219690010852,4.11612000278183,1.51363540412029,-1.26413068262758,3.4132921654172,0,0,7.29250862193723,10,4
6.30391591406322,3.23721539474546,2.78017657776161,23.1879434627004,23.1325760828994,4.14852646242326,1.53400435936959,-1.26654117364131,3.44237410218426,0,0,7.29816518415896,10,4
6.30594433814693,3.23984732073179,2.80301212352936,23.1986558403344,23.1431318407722,4.18082668811263,1.55444697904608,-1.26900776415977,3.47145323813538,0,0,7.30385651937367,10,4
6.3079629247105,3.24249445180098,2.82597253211549,23.2093137875365,23.1536364049715,4.21302148044589,1.57496127651615,-1.27152555306941,3.50052725310979,0,0,7.30958098124071,10,4
